t(s),inventory(He/m2),flux_surface_left(He/m2/s),max_ib(He),x_max_ib(m),mean_ib(He),total_bubbles
1e-06,0.0011299350647692764,-2.5385785363420915e+20,7.04220191982,2.1484375e-08,7.0283877139092645,0.00016076732115007276
2.1000000000000002e-06,0.02772874820762811,-2.5706881780017988e+20,7.1445352627,3.22265625e-08,7.095640726939955,0.003907856848268913
3.3100000000000005e-06,0.2472946431066515,-2.579098896641954e+20,7.13806990372,3.90625e-08,7.0894158944625225,0.03488223103116451
4.641000000000001e-06,1.3991450679218764,-2.583366663228025e+20,7.09328061622,4.19921875e-08,7.056093053685314,0.1982889195588371
6.105100000000001e-06,6.080093639296219,-2.586068135401095e+20,7.05898798841,4.296875e-08,7.031652423580787,0.864674940261055
7.715610000000002e-06,22.184259065732004,-2.5879798180753582e+20,7.03791818564,4.296875e-08,7.018072845197244,3.1610186378891187
9.487171000000002e-06,71.40869220068572,-2.5894265125231352e+20,7.02564420937,4.19921875e-08,7.0112858979578085,10.184821049942505
1.1435888100000002e-05,209.1186315257168,-2.590571233723145e+20,7.01867219259,4.1015625e-08,7.008167000281924,29.839276306815233
1.3579476910000003e-05,568.7468628104622,-2.5915060216125574e+20,7.01486826524,4.00390625e-08,7.00695687348536,81.1688830229034
1.5937424601000003e-05,1457.5844991530385,-2.59228733441581e+20,7.01299949934,3.7109375e-08,7.006747178397457,208.02584452410753
1.8531167061100006e-05,3557.495159679271,-2.5929520103397828e+20,7.01236084724,3.41796875e-08,7.007081962536174,507.6999496651607
2.1384283767210007e-05,8335.17088283096,-2.5935252658975995e+20,7.01254767704,2.9296875e-08,7.007735256207606,1189.4243401172273
2.452271214393101e-05,18862.812913947022,-2.5940250379654568e+20,7.01333781792,2.24609375e-08,7.008597021112511,2691.382149255434
2.7974983358324114e-05,41428.80223026355,-2.5944644945141537e+20,7.01462794463,1.07421875e-08,7.009615996151649,5910.281284025885
3.177248169415653e-05,88644.88381043608,-2.594853562552892e+20,7.01635577421,4.638671875e-09,7.010771133877777,12644.09893258134
3.5949729863572185e-05,185346.51708294023,-2.5951998981688348e+20,7.01831771959,4.39453125e-09,7.012057272656199,26432.544669266532
4.0544702849929404e-05,379634.0100608637,-2.5955095247021985e+20,7.02050358703,4.39453125e-09,7.013477921936065,54129.20868738773
4.559917313492235e-05,763249.1682449707,-2.5957872655460644e+20,7.02293124931,4.2724609375e-09,7.015041631759506,108801.80165852177
5.115909044841459e-05,1508686.0599363751,-2.596037045451155e+20,7.02562398581,4.2724609375e-09,7.016760187492464,215011.7746115426
5.727499949325605e-05,2935918.422324144,-2.5962621051049935e+20,7.02860870611,4.2724609375e-09,7.018647745508939,418302.57462383213
6.400249944258165e-05,5630887.169249154,-2.5964651569953597e+20,7.03191664018,4.2724609375e-09,7.020720461587224,802038.3662983982
7.140274938683982e-05,10653316.85870549,-2.596648500581011e+20,7.03558326687,4.2724609375e-09,7.022996383366415,1516919.0295950163
7.954302432552381e-05,19896761.928256545,-2.596814108658331e+20,7.0396486966,4.2724609375e-09,7.025495489998782,2832079.5247226036
8.84973267580762e-05,36704780.27995038,-2.5969636929412645e+20,7.04415816838,4.2724609375e-09,7.0282398196619456,5222471.233446877
9.834705943388383e-05,66912481.54935398,-2.5970987543688338e+20,7.04916265564,4.2724609375e-09,7.031253655531229,9516436.872778213
0.00010918176537727222,120585234.82632576,-2.597220622000066e+20,7.05471958347,4.2724609375e-09,7.034563756592032,17141821.29820436
0.00012109994191499945,214884576.95197427,-2.597330483242907e+20,7.06089366445,4.2724609375e-09,7.038199628125828,30531185.28966689
0.0001342099361064994,378731432.3953847,-2.597429407405198e+20,7.06775786538,4.2724609375e-09,7.042193831348494,53780319.23936156
0.00014863092971714937,660294378.5487777,-2.5975183640358647e+20,7.07539452065,4.2724609375e-09,7.046582334329683,93704202.57944651
0.00016449402268886432,1138853307.941276,-2.5975982371677772e+20,7.08389665464,4.39453125e-09,7.051404907924399,161507291.4989505
0.00018194342495775077,1943337195.5369594,-2.5976698363272718e+20,7.09336943279,4.39453125e-09,7.056705571494293,275388731.4481576
0.00020113776745352586,3280883277.7354193,-2.5977339050014002e+20,7.10393165556,4.39453125e-09,7.062533093949609,464547667.8256013
0.00022225154419887848,5480200390.774545,-2.5977911271249694e+20,7.11571796192,4.39453125e-09,7.068941556246697,775250487.9506027
0.00024547669861876636,9056435175.89747,-2.5978421320475876e+20,7.12888095058,4.39453125e-09,7.075990982021507,1279882238.2487237
0.000271024368480643,14806727289.866987,-2.597887498356207e+20,7.14359372868,4.39453125e-09,7.083748043577194,2090239121.829324
0.00029912680532870735,23948770979.063564,-2.5979277568569573e+20,7.16005283539,4.39453125e-09,7.092286851022722,3376734681.227692
0.0003300394858615781,38318506183.49538,-2.59796339296028e+20,7.17848159355,4.39453125e-09,7.101689832994915,5395688502.962364
0.0003640434344477359,60647502406.8162,-2.5979948486650416e+20,7.19913394836,4.39453125e-09,7.112048718111597,8527430675.829148
0.00040144777789250956,94945527209.73619,-2.598022524299183e+20,7.22229885805,4.39453125e-09,7.123465627093093,13328558342.251883
0.00044259255568176054,147018923061.17978,-2.5980467801440725e+20,7.24830530692,4.39453125e-09,7.136054286355699,20602270829.453102
0.00048785181124993667,225160300256.05984,-2.5980679380439718e+20,7.27752801559,4.39453125e-09,7.149941374803137,31491209291.525036
0.0005376369923749304,341049065319.4085,-2.5980862830783237e+20,7.31039392733,4.39453125e-09,7.165268016512465,47597530829.75486
0.0005924006916124235,510904670899.22217,-2.5981020653505544e+20,7.34738955072,4.39453125e-09,7.1821914330026795,71134928059.9204
0.0006526407607736659,756934342745.5907,-2.5981155019224442e+20,7.38906923903,4.39453125e-09,7.200886769773388,105116823378.32559
0.0007189048368510325,1109113603939.764,-2.598126778897633e+20,7.43606448403,4.39453125e-09,7.221549112794882,153583889912.85486
0.0007917953205361358,1607330587115.0828,-2.598136053632733e+20,7.48909429693,4.39453125e-09,7.244395711629385,221872279082.5527
0.0008719748525897494,2303913744527.0645,-2.598143457031033e+20,7.54897674192,4.39453125e-09,7.269668426898665,316921434270.96356
0.0009601723378487245,3266547623890.3384,-2.598149095853538e+20,7.61664167954,4.39453125e-09,7.297636420971247,447617205826.1559
0.001057189571633597,4581564183356.089,-2.5981530549668446e+20,7.69314476962,4.39453125e-09,7.328599112158152,625162341839.0112
0.001163908528796957,6357579861776.982,-2.5981553994387295e+20,7.77968277966,4.39453125e-09,7.362889414598918,863462630468.327
0.0012812993816766526,8729434271627.204,-2.5981561763919282e+20,7.87761024865,4.39453125e-09,7.400877288668217,1179513445655.0435
0.001410429319844318,11862378395671.293,-2.598155416535426e+20,7.98845757358,4.39453125e-09,7.442973630514485,1593768698445.7747
0.00155247225182875,15956461993380.623,-2.598153135310983e+20,8.11395062241,4.39453125e-09,7.4896345346691575,2130472711254.3247
0.0017087194770116251,21251084387673.08,-2.5981493336194544e+20,8.25603203813,4.39453125e-09,7.541365970990001,2817935698840.421
0.0018805914247127878,28029701491680.562,-2.5981439981245235e+20,8.41688448933,4.39453125e-09,7.598728926946978,3688735545267.352
0.0020696505671840668,36624724710073.95,-2.5981371011669574e+20,8.59895624382,4.39453125e-09,7.662345078755377,4779832327262.275
0.0022776156239024737,47422702158371.24,-2.5981286003558508e+20,8.80498959282,4.39453125e-09,7.732903070275077,6132587170355.455
0.0025063771862927214,60869935721190.77,-2.598118437930168e+20,9.03805282639,4.39453125e-09,7.8111654968544,7792682890370.642
0.0027580149049219937,77478753930601.62,-2.598106540000162e+20,9.30157664701,4.39453125e-09,7.897976712058316,9809949656132.836
0.0030348163954141932,97834725368482.83,-2.598092815782331e+20,9.599396095,4.39453125e-09,7.994271597841629,12238103768565.63
0.0033392980349556127,122605155917045.88,-2.5980771569334e+20,9.93579923523,4.39453125e-09,8.101085462356654,15134410874537.215
0.0036742278384511743,152549262948248.38,-2.5980594370708105e+20,10.3155840121,4.39453125e-09,8.219565253239315,18559286075152.09
0.004042650622296292,188530459840719.6,-2.5980395115434777e+20,10.7441248176,4.39453125e-09,8.350982297007887,22575842354290.35
0.004447915684525921,231531216625311.84,-2.598017217491681e+20,11.2274504425,4.39453125e-09,8.496746796498535,27249395818258.9
0.004893707252978514,282670990469722.2,-2.5979923742132584e+20,11.7723352074,4.39453125e-09,8.6584243378975,32646931986514.574
0.005384077978276365,343227747552463.06,-2.5979647838379367e+20,12.3864052149,4.39453125e-09,8.837754677369276,38836532590270.01
0.005923485776104002,414663630230375.06,-2.597934232303793e+20,13.0782618513,4.39453125e-09,9.036673095636266,45886757863423.51
0.006516834353714403,498655364166172.44,-2.5979004906291325e+20,13.8576249064,4.39453125e-09,9.257334628856418,53865975916198.74
0.007169517789085845,597130051862800.5,-2.5978633164773684e+20,14.7354989923,4.2724609375e-09,9.502141507889045,62841629054570.49
0.00788746956799443,712307062928563.4,-2.5978224560188005e+20,15.7243653447,4.2724609375e-09,9.77377416779738,72879427199727.19
0.008677216524793875,846746807038426.4,-2.5977776460986486e+20,16.8383943269,4.2724609375e-09,10.0752262272998,84042460976616.48
0.009545938177273262,1003407261634328.0,-2.5977286167221515e+20,18.093706204,4.2724609375e-09,10.409843885493707,96390231464718.98
0.01050153199500059,1185709221191118.5,-2.5976750938634315e+20,19.5086592102,4.2724609375e-09,10.78137024153503,109977599751021.97
0.01155268519450065,1397611336866576.2,-2.5976168025940915e+20,21.1041836771,4.2724609375e-09,11.19399511236301,124853666884578.95
0.012708953713950717,1643696123835675.5,-2.5975534705101586e+20,22.9041660265,4.2724609375e-09,11.652411003708623,141060603107162.53
0.01398084908534579,1929268229017870.8,-2.597484831413542e+20,24.9358900473,4.2724609375e-09,12.161875979850876,158632453760766.5
0.015379933993880369,2260466904355540.5,-2.5974106291708697e+20,27.2305504429,4.2724609375e-09,12.72828724500628,177593957524991.8
0.016918927393268408,2644391808591931.0,-2.5973306216640987e+20,29.8238175175,4.2724609375e-09,13.358252020564517,197959418980940.84
0.01861182013259525,3089248341665692.0,-2.5972445847597004e+20,32.7565240917,4.2724609375e-09,14.059184696220612,219731684903189.53
0.020474002145854774,3604510199701992.0,-2.5971523160036013e+20,36.0754296604,4.2724609375e-09,14.839404298162064,242901273344808.66
0.022522402360440254,4201103185756916.5,-2.5970536380650432e+20,39.8341049329,4.2724609375e-09,15.708246874704804,267445706657565.22
0.024775642596484283,4891612217053421.0,-2.596948401687699e+20,44.0939484555,4.2724609375e-09,16.67619172653353,293329094392118.56
0.027254206856132713,5690514108807849.0,-2.5968364880249782e+20,48.9253551593,4.2724609375e-09,17.75500319138454,320502004278384.0
0.029980627541745988,6614439032264654.0,-2.5967178102423562e+20,54.4090597438,4.2724609375e-09,18.95788991547926,348901647902487.0
0.032979690295920586,7682463915108255.0,-2.5965923143030827e+20,60.6376813819,4.2724609375e-09,20.29968380100024,378452393171252.9
0.03627865932551265,8916441482836170.0,-2.596459978895228e+20,67.7175003819,4.2724609375e-09,21.79704111368184,409066599284404.06
0.03990752525806392,1.0341369136479108e+16,-2.5963208145041945e+20,75.7705022703,4.2724609375e-09,23.46866856924893,440645753122502.94
0.043899277783870316,1.1985802431192904e+16,-2.5961748616809733e+20,84.9367303467,4.2724609375e-09,25.335577593326825,473081870229390.9
0.048290205562257354,1.3882318567019764e+16,-2.596022188598446e+20,95.3769942328,4.2724609375e-09,27.42137036793788,506259110348894.3
0.0531202261184831,1.6068036032303908e+16,-2.5958628880222028e+20,107.275989412,4.2724609375e-09,29.752561740882676,540055547896737.6
0.058433248730331414,1.858519735654372e+16,-2.5956970738459676e+20,120.845891378,4.2724609375e-09,32.358941585668255,574345032495595.8
0.06427757360336456,2.1481822838120956e+16,-2.595524877353486e+20,136.330497962,4.2724609375e-09,35.273982764388535,608999073952270.1
0.07070633096370102,2.481244411990718e+16,-2.5953464433686708e+20,154.010004861,4.2724609375e-09,38.535300471129695,643888689501628.4
0.07777796406007113,2.863892760073496e+16,-2.5951619264447604e+20,174.206512628,4.2724609375e-09,42.185169427812774,678886158078418.2
0.08555676046607825,3.303139890418787e+16,-2.5949714872236704e+20,197.290378602,4.2724609375e-09,46.27110617819378,713866635843571.0
0.09411343651268608,3.80692809920382e+16,-2.594775289070789e+20,223.687544856,4.2724609375e-09,50.84652459061324,748709598120028.8
0.1035257801639547,4.3842460024876744e+16,-2.594573495061693e+20,253.88799353,4.2724609375e-09,55.97147364875212,783300084253797.6
0.11387935818035018,5.045259475699538e+16,-2.594366265368198e+20,288.455504353,4.2724609375e-09,61.71346769593404,817529732822312.6
0.1252682939983852,5.801458712928224e+16,-2.5941537550642246e+20,328.038916206,4.2724609375e-09,68.14842051722769,851297604390058.5
0.13779612339822375,6.665823381853555e+16,-2.5939361123488537e+20,373.38512588,4.2724609375e-09,75.36169601077475,884510797222572.8
0.15157673573804614,7.653008084284214e+16,-2.5937134771649875e+20,425.354093266,4.2724609375e-09,83.44928973270336,917084867803858.4
0.16673540931185077,8.779550594206982e+16,-2.5934859801777675e+20,484.936163989,4.2724609375e-09,92.51915731756628,948944072639109.6
0.18340995024303586,1.0064105638490226e+17,-2.5932537420669983e+20,553.272068698,4.2724609375e-09,102.69270769919387,980021450789852.6
0.20175194526733947,1.1527707313757926e+17,-2.5930168730828816e+20,631.676013931,4.2724609375e-09,114.10648120826316,1010258768099066.9
0.22192813979407344,1.3194063600687765e+17,-2.59277547281423e+20,721.66234382,4.2724609375e-09,126.91403502820609,1039606344385429.2
0.2441219537734808,1.508988684879748e+17,-2.592529630123311e+20,824.976326163,4.2724609375e-09,141.28806117905083,1068022784294169.2
0.26853514915082893,1.724526456588339e+17,-2.5922794232102643e+20,943.632019919,4.150390625e-09,157.42276520135522,1095474631246975.9
0.29538966406591183,1.969407536248931e+17,-2.592024919780512e+20,1079.95122434,4.150390625e-09,175.5365370655525,1121935962262645.0
0.324929630472503,2.2474455479630768e+17,-2.591766177297425e+20,1236.60562621,4.150390625e-09,195.8749495768514,1147387939508463.2
0.35742359351975334,2.562932197473153e+17,-2.5915032433073727e+20,1416.67968612,4.150390625e-09,218.71412372865439,1171818332433268.2
0.3931669528717287,2.920695936450355e+17,-2.5912361558251995e+20,1623.73089527,4.150390625e-09,244.3645051314874,1195221022332515.2
0.43248464815890164,3.326167733335967e+17,-2.5909649437678754e+20,1861.86281444,4.150390625e-09,273.17510086891,1217595499280921.8
0.47573411297479185,3.7854548022019456e+17,-2.5906896274249725e+20,2135.80942423,4.150390625e-09,305.5382319747525,1238946359588396.5
0.523308524272271,4.305423242444748e+17,-2.590410218957283e+20,2451.03253871,4.150390625e-09,341.8948632660786,1259282810310626.5
0.5756403766994982,4.893790655462439e+17,-2.5901267229172623e+20,2813.83430652,4.150390625e-09,382.74057960072025,1278618185865659.2
0.6332054143694481,5.5592299311779686e+17,-2.5898391367862924e+20,3231.48713735,4.150390625e-09,428.6322858852045,1296969480424727.2
0.696526955806393,6.311485538907227e+17,-2.589547451524596e+20,3712.38375614,4.150390625e-09,480.19571751464355,1314356898385866.8
0.7661806513870324,7.16150381535804e+17,-2.589251652131449e+20,4266.2105093,4.150390625e-09,538.133858621942,1330803423835341.8
0.8427997165257357,8.121578919383767e+17,-2.5889517182168878e+20,4904.14754106,4.150390625e-09,603.2363778517544,1346334408462954.0
0.9270806881783094,9.205516320546618e+17,-2.5886476245910333e+20,5639.10003489,4.150390625e-09,676.3902056700224,1360977176100261.0
1.0197897569961403,1.0428815908683983e+18,-2.5883393418815052e+20,6485.96539395,4.150390625e-09,758.5913936892499,1374760641294073.8
1.1217697326957543,1.1808877056656259e+18,-2.5880268371903693e+20,7461.94202862,4.150390625e-09,850.9584150881702,1387714939681595.0
1.2339477059653299,1.3365228240446405e+18,-2.5877100747959147e+20,8586.88634285,4.150390625e-09,954.7470854726657,1399871069921066.5
1.357343476561863,1.511978412221934e+18,-2.587389016888084e+20,9883.72556526,4.150390625e-09,1071.3673045545618,1411260550694669.0
1.4930788242180495,1.709713333597754e+18,-2.587063624299791e+20,11378.9352517,4.150390625e-09,1202.401839643951,1421915101280970.8
1.6423877066398544,1.9324860586688156e+18,-2.5867338571637155e+20,13103.0915765,4.150390625e-09,1349.6273911766893,1431866359042960.5
1.80662747730384,2.1833907088962975e+18,-2.586399675394658e+20,15091.6577351,4.0283203125e-09,1515.0381981455184,1441145650036332.8
1.987291225034224,2.4658973839985495e+18,-2.586061038882311e+20,17385.3402643,4.0283203125e-09,1700.8724585487407,1449783828061136.2
2.186021347537647,2.7838972755227525e+18,-2.585717907288698e+20,20031.2642965,4.0283203125e-09,1909.6418595676225,1457811191965114.0
2.404624482291412,3.1417531307969894e+18,-2.5853702393825195e+20,23083.8781569,4.0283203125e-09,2144.1645381825538,1465257481340502.0
2.6450879305205532,3.5443557018027694e+18,-2.5850179919062575e+20,26606.0755307,4.0283203125e-09,2407.601829876941,1472151938837798.2
2.9095977235726087,3.997186894281242e+18,-2.584661118049459e+20,30670.4970315,4.0283203125e-09,2703.4992149014847,1478523415967368.5
3.2005584959298696,4.506390424319355e+18,-2.584299565677149e+20,35361.0261582,4.0283203125e-09,3035.8319406130295,1484400491355715.0
3.520615345522857,5.078850893188263e+18,-2.58393327551915e+20,40774.5079934,4.0283203125e-09,3409.0558847122243,1489811568054418.8
3.872677880075143,5.722282306438225e+18,-2.5835621795510108e+20,47022.7239629,4.0283203125e-09,3828.164325452275,1494784920384046.2
4.259946668082658,6.445327190119896e+18,-2.583186199784021e+20,54234.662015,4.0283203125e-09,4298.751396753562,1499348670171398.5
4.685942334890924,7.257667595501743e+18,-2.5828052476313413e+20,62559.1287247,4.0283203125e-09,4827.08312318155,1503530685155921.8
5.154537568380016,8.170149434165081e+18,-2.5824192239378396e+20,72167.7580645,4.0283203125e-09,5420.177046492991,1507358406207671.8
5.669992325218018,9.194921748984465e+18,-2.58202801966662e+20,83258.4808455,4.0283203125e-09,6085.891567902061,1510858622174590.2
6.236992557739821,1.0345592705393617e+19,-2.581631517142087e+20,96059.5290169,4.0283203125e-09,6833.026237161941,1514057219497901.5
6.860692813513804,1.1637404284915386e+19,-2.581229591674948e+20,110834.06008,4.0283203125e-09,7671.4343237821395,1516978936890378.0
7.546763094865185,1.3087427883866937e+19,-2.580822113352692e+20,127885.498907,4.0283203125e-09,8612.149114347956,1519647153120364.2
8.301440404351705,1.4714783270060257e+19,-2.5804089487767716e+20,147563.70751,4.0283203125e-09,9667.525503712655,1522083729120682.0
9.131585444786877,1.6540883635166857e+19,-2.579989962563678e+20,170272.10832,4.0283203125e-09,10851.398599056689,1524308915958976.5
10.044744989265565,1.8589709805814157e+19,-2.5795650184906932e+20,196477.414585,3.90625e-09,12179.261245426125,1526341329840137.2
11.049220488192123,2.088811704709062e+19,-2.579133980242147e+20,226716.751404,3.90625e-09,13668.462616381648,1528197986367261.0
12.154143537011336,2.3466178311506874e+19,-2.5786967117807796e+20,261607.771392,3.90625e-09,15338.43029552908,1529894380283940.0
13.36955889071247,2.6357568257413595e+19,-2.5782530774177127e+20,301864.194771,3.90625e-09,17210.918600961915,1531444594476234.0
14.706515779783718,2.9599992886286324e+19,-2.5778029416771496e+20,348309.098511,3.90625e-09,19310.28626973761,1532861422809374.5
16.177168357762092,3.3235670232126296e+19,-2.5773461690502427e+20,401891.650205,3.90625e-09,21663.807019036813,1534156494420433.5
17.794886193538304,3.73118681842596e+19,-2.576882623713888e+20,463706.391066,3.90625e-09,24302.016933810293,1535340391124050.8
19.574375812892136,4.188150624498982e+19,-2.5764121692644878e+20,535015.458132,3.90625e-09,27259.103101415334,1536422753499005.2
