t(s),inventory(He/m2),flux_surface_left(He/m2/s),max_ib(He),x_max_ib(m),mean_ib(He),total_bubbles
1e-06,-346.62026340420863,-1.8280254907200973e+21,7.00053944074,1.220703125e-10,-0.21206690164904554,1634.485441664247
2.1000000000000002e-06,113296.6017216177,-1.9024242457836792e+21,7.00139856222,2.44140625e-10,3.414549773962503,33180.53893533955
3.3100000000000005e-06,1362858.5889174566,-1.9222815462940426e+21,7.00269081391,5.95703125e-08,5.215284861511765,261320.06690089064
4.641000000000001e-06,8112116.933217668,-1.931859884977552e+21,7.00535170646,5.46875e-08,6.086001352447721,1332914.0865134816
6.105100000000001e-06,34238547.884815104,-1.9375873632634688e+21,7.00871639465,4.98046875e-08,6.521828408859016,5249838.808746746
7.715610000000002e-06,117222720.18721503,-1.9413987463447052e+21,7.01274961519,4.6875e-08,6.74903416299644,17368814.167503104
9.487171000000002e-06,347885852.36102706,-1.9440984280961426e+21,7.01745887801,4.296875e-08,6.872617304337337,50619121.79243196
1.1435888100000002e-05,929415095.5416784,-1.946087685578701e+21,7.02391642891,1.220703125e-09,6.943015712187759,133863314.45429175
1.3579476910000003e-05,2288793107.803161,-1.9475918856748524e+21,7.03316106716,1.46484375e-09,6.985352241913349,327656076.39225376
1.5937424601000003e-05,5278408660.486279,-1.9487486794308547e+21,7.04455679937,1.8310546875e-09,7.0125783926694965,752705832.9934666
1.8531167061100006e-05,11527524086.81639,-1.949647596299999e+21,7.05806136059,2.197265625e-09,7.031590169186367,1639390779.2481956
2.1384283767210007e-05,24034864564.5085,-1.9503497909846186e+21,7.0730409466,2.44140625e-09,7.046175504837895,3411051079.8384447
2.452271214393101e-05,48137552731.06081,-1.9508987117974743e+21,7.08896383928,2.8076171875e-09,7.058482335773114,6819816277.940477
2.7974983358324114e-05,93050498292.31656,-1.9513262393839077e+21,7.10561867897,3.0517578125e-09,7.0697723683727896,13161738942.06066
3.177248169415653e-05,174246017562.4318,-1.9516564038284982e+21,7.1232297476,3.173828125e-09,7.0808190569023735,24608172608.587845
3.5949729863572185e-05,317036190823.36194,-1.9519077318530887e+21,7.14211695639,3.2958984375e-09,7.0921232725818,44702577583.36296
4.0544702849929404e-05,561827885834.5474,-1.9520947813849256e+21,7.16266220289,3.41796875e-09,7.10403313085749,79085763746.53423
4.559917313492235e-05,971636190472.0214,-1.9522291740102652e+21,7.18528112721,3.41796875e-09,7.116812261066324,136526882377.8751
5.115909044841459e-05,1642554855654.1257,-1.9523203059441478e+21,7.21035736222,3.41796875e-09,7.130679772074576,230350388484.24496
5.727499949325605e-05,2717975183542.573,-1.9523758466878968e+21,7.23836351898,3.5400390625e-09,7.14583440880609,380357985932.7704
6.400249944258165e-05,4407395152443.755,-1.9524020937552193e+21,7.26974940644,3.5400390625e-09,7.162469758850648,615345725822.7927
7.140274938683982e-05,7010642476813.304,-1.9524042278294064e+21,7.30503300617,3.5400390625e-09,7.18078435097775,976305948508.0791
7.954302432552381e-05,10948223078376.209,-1.9523864981717105e+21,7.34479611505,3.5400390625e-09,7.200988838734192,1520377731942.2585
8.84973267580762e-05,16798280509815.943,-1.9523523590342957e+21,7.38969407671,3.5400390625e-09,7.223311544080236,2325564999834.839
9.834705943388383e-05,25340305985736.45,-1.9523045719626883e+21,7.44046970958,3.5400390625e-09,7.248003115073147,3496177579316.7153
0.00010918176537727222,37605287319555.805,-1.952245284870792e+21,7.49796759072,3.5400390625e-09,7.27534075059522,5168869556588.012
0.00012109994191499945,54931468956697.47,-1.9521760958535917e+21,7.56314896194,3.5400390625e-09,7.305632267996686,7519057480805.901
0.0001342099361064994,79024382681318.58,-1.9520981074249866e+21,7.6371073923,3.5400390625e-09,7.339220183511959,10767408621811.355
0.00014863092971714937,112019390281918.03,-1.9520119750040845e+21,7.72108524154,3.5400390625e-09,7.376485911167252,15186010199291.783
0.00016449402268886432,156544756799407.94,-1.951917951935659e+21,7.81649091768,3.5400390625e-09,7.417854147419164,21103779299013.76
0.00018194342495775077,215783339467912.7,-1.9518159321108413e+21,7.92491691254,3.5400390625e-09,7.463797487109135,28910663752680.344
0.00020113776745352586,293531397499933.3,-1.9517054903741346e+21,8.04815863704,3.5400390625e-09,7.514841306861029,39060225693913.19
0.00022225154419887848,394253817301905.56,-1.951585920374941e+21,8.18823417229,3.5400390625e-09,7.571568952553445,52070293458655.875
0.00024547669861876636,523136161798041.4,-1.9514562693246403e+21,8.34740520407,3.5400390625e-09,7.634627276989714,68521506396879.5
0.000271024368480643,686135286066465.4,-1.9513153691899836e+21,8.52819961308,3.5400390625e-09,7.704732591859792,89053744291058.38
0.00029912680532870735,890031662980984.5,-1.9511618640938813e+21,8.73343643588,3.5400390625e-09,7.782677123914204,114360604816322.36
0.0003300394858615781,1142487861073094.0,-1.9509942339973774e+21,8.96625416653,3.5400390625e-09,7.8693360977231706,145182242426225.66
0.0003640434344477359,1452118655993864.5,-1.950810815007641e+21,9.23014360669,3.5400390625e-09,7.96567560434777,182296986234448.1
0.00040144777789250956,1828578928196965.8,-1.9506098168367926e+21,9.52898666278,3.5400390625e-09,8.072761453598476,226512196440768.97
0.00044259255568176054,2282675766132179.5,-1.9503893380087653e+21,9.86710261389,3.5400390625e-09,8.191769243445878,278654793402355.34
0.00048785181124993667,2826511099979508.5,-1.9501473793971315e+21,10.2493034281,3.5400390625e-09,8.323995909566715,339561807896976.2
0.0005376369923749304,3473660849827150.5,-1.9498818566182884e+21,10.6809597028,3.5400390625e-09,8.47087303762203,410071173821097.44
0.0005924006916124235,4239396142904354.0,-1.949590611744338e+21,11.1680787702,3.5400390625e-09,8.633982228929662,491012840946037.4
0.0006526407607736659,5140951805491847.0,-1.949271424766673e+21,11.7173964852,3.5400390625e-09,8.815072807285455,583200152498226.5
0.0007189048368510325,6197847209893304.0,-1.9489220252392552e+21,12.3364842222,3.5400390625e-09,9.016082143888722,687421333455166.8
0.0007917953205361358,7432264747963779.0,-1.9485401045442704e+21,13.0338726937,3.5400390625e-09,9.239158863844017,804430885699862.6
0.0008719748525897494,8869491740879223.0,-1.9481233292253604e+21,13.8191943705,3.5400390625e-09,9.486689187829473,934940690610792.2
0.0009601723378487245,1.053843245387429e+16,-1.9476693557979875e+21,14.7033465533,3.5400390625e-09,9.761326662342437,1079610673673056.8
0.001057189571633597,1.2472197998846434e+16,-1.947175847355795e+21,15.6986775016,3.5400390625e-09,10.06602554613398,1239038977368439.5
0.001163908528796957,1.4708783195245336e+16,-1.9466404921423734e+21,16.8191984733,3.5400390625e-09,10.404078151580224,1413751702068029.0
0.0012812993816766526,1.7291840845210216e+16,-1.9460610240602398e+21,18.080825054,3.5400390625e-09,10.77915648819378,1604192393361175.0
0.001410429319844318,2.02715653099341e+16,-1.9454352448625996e+21,19.5016517425,3.5400390625e-09,11.195358620004361,1810711563425219.0
0.00155247225182875,2.370569872903085e+16,-1.9447610475432197e+21,21.1022644213,3.5400390625e-09,11.65726022723637,2033556621962007.0
0.0017087194770116251,2.7660674712966704e+16,-1.944036440230443e+21,22.9060960676,3.5400390625e-09,12.16997195389405,2272862650609154.5
0.0018805914247127878,3.221291589719189e+16,-1.9432595697248423e+21,24.9398318737,3.5400390625e-09,12.739203225776457,2528644478487665.0
0.0020696505671840668,3.745030343295647e+16,-1.942428743714124e+21,27.2338708581,3.5400390625e-09,13.371333338457909,2800790503460408.5
0.0022776156239024737,4.347383837569912e+16,-1.941542450665519e+21,29.822852093,3.5400390625e-09,14.073490743233053,3089058654236342.5
0.0025063771862927214,5.039951709794545e+16,-1.9405993764411655e+21,32.7462548697,3.5400390625e-09,14.85364160284161,3393074805864688.0
0.0027580149049219937,5.836044538450224e+16,-1.9395984168049118e+21,36.0494916553,3.41796875e-09,15.720688849907965,3712333851378523.0
0.0030348163954141932,6.750921884769139e+16,-1.93853868518176e+21,39.7839381781,3.41796875e-09,16.684583161034872,4046203503924043.5
0.0033392980349556127,7.802060080916752e+16,-1.9374195152787063e+21,44.0079190774,3.41796875e-09,17.756447459430337,4393930767256672.0
0.0036742278384511743,9.009453290354016e+16,-1.9362404584572647e+21,48.7882389136,3.41796875e-09,18.948716779339573,4754650879671877.0
0.004042650622296292,1.0395951842711571e+17,-1.9350012760383561e+21,54.2011063011,3.41796875e-09,20.275295566791986,5127398418664063.0
0.004447915684525921,1.1987642392967157e+17,-1.933701926993428e+21,60.3334726794,3.41796875e-09,21.75173475390385,5511120160572801.0
0.004893707252978514,1.38142750764922e+17,-1.9323425517073966e+21,67.2845652061,3.41796875e-09,23.395431229664027,5904689227944862.0
0.005384077978276365,1.5909743530738646e+17,-1.9309234526700582e+21,75.1676429137,3.41796875e-09,25.225852641437903,6306920030367613.0
0.005923485776104002,1.8312624434279622e+17,-1.929445073051253e+21,84.112009711,3.41796875e-09,27.264790802446292,6716583511301524.0
0.006516834353714403,2.1066784078933568e+17,-1.9279079741381513e+21,94.2653228842,3.41796875e-09,29.536647356822524,7132422249699730.0
0.007169517789085845,2.4222060446957354e+17,-1.9263128125656541e+21,105.796241565,3.41796875e-09,32.06875577247705,7553165024177800.0
0.00788746956799443,2.7835030321431498e+17,-1.924660318165409e+21,118.897466276,3.41796875e-09,34.89174420100884,7977540521068790.0
0.008677216524793875,3.1969872125525946e+17,-1.9229512731120427e+21,133.789228259,3.41796875e-09,38.03994427219201,8404289947631860.0
0.009545938177273262,3.669933647990865e+17,-1.9211864928756344e+21,150.723296006,3.41796875e-09,41.55185148735419,8832178390673556.0
0.01050153199500059,4.2105837904734803e+17,-1.91936680931531e+21,169.987576362,3.41796875e-09,45.47064355066547,9260004833188374.0
0.01155268519450065,4.828268269375142e+17,-1.9174930560852408e+21,191.911399022,3.41796875e-09,49.84476373942861,9686610803525278.0
0.012708953713950717,5.5335449775948326e+17,-1.9155660563825843e+21,216.871586333,3.41796875e-09,54.728577273867394,1.011088768104533e+16
0.01398084908534579,6.338354338001053e+17,-1.9135866129537331e+21,245.299425384,3.41796875e-09,60.18310961431657,1.0531782718806646e+16
0.015379933993880369,7.256193855610025e+17,-1.911555500193125e+21,277.688676661,3.41796875e-09,66.27687670113771,1.0948303868225982e+16
0.016918927393268408,8.302314311815848e+17,-1.9094734581166184e+21,314.620456426,3.2958984375e-09,73.08681837358013,1.135952350446961e+16
0.01861182013259525,9.493940238075265e+17,-1.9073411879655986e+21,356.73736572,3.2958984375e-09,80.69934757319604,1.17645811565751e+16
0.020474002145854774,1.0850517621345846e+18,-1.9051593491933278e+21,404.779047404,3.2958984375e-09,89.21152947212558,1.2162685345212162e+16
0.022522402360440254,1.239399214625137e+18,-1.9029285575959747e+21,459.59786152,3.2958984375e-09,98.73240638509355,1.2553114625718868e+16
0.024775642596484283,1.4149121673796524e+18,-1.9006493843718057e+21,522.170934886,3.2958984375e-09,109.38448624690928,1.2935217926478414e+16
0.027254206856132713,1.6143827098341627e+18,-1.8983223559185684e+21,593.61864307,3.2958984375e-09,121.30541458732597,1.3308414264327768e+16
0.029980627541745988,1.8409586218912492e+18,-1.895947954207274e+21,675.225842109,3.2958984375e-09,134.64985233770264,1.3672191910571976e+16
0.032979690295920586,2.0981875813802025e+18,-1.8935266175978483e+21,768.466258483,3.2958984375e-09,149.59158448713265,1.4026107073962314e+16
0.03627865932551265,2.3900667725586253e+18,-1.8910587419866203e+21,875.030506212,3.2958984375e-09,166.32588760108106,1.436978216097667e+16
0.03990752525806392,2.721098545467251e+18,-1.888544682196604e+21,996.858269299,3.2958984375e-09,185.0721875582876,1.4702903668927858e+16
0.043899277783870316,3.096352853177317e+18,-1.8859847535386194e+21,1136.17526712,3.2958984375e-09,206.07704259126177,1.5025219763652658e+16
0.048290205562257354,3.521537280271256e+18,-1.8833792334848734e+21,1295.53571133,3.2958984375e-09,229.61749087645074,1.5336537590536054e+16
0.0531202261184831,4.003075572327927e+18,-1.880728363407082e+21,1477.871067,3.2958984375e-09,256.0048065619075,1.5636720365091646e+16
0.058433248730331414,4.5481956839278884e+18,-1.8780323503392657e+21,1686.66621427,3.173828125e-09,285.58871329894913,1.5925684286993928e+16
0.06427757360336456,5.165028483072915e+18,-1.8752913687316128e+21,1925.76585943,3.173828125e-09,318.76211012275803,1.6203395319110602e+16
0.07070633096370102,5.862718384405101e+18,-1.8725055621668683e+21,2199.57026584,3.173828125e-09,355.96637097550735,1.6469865870583856e+16
0.07777796406007113,6.651547333865325e+18,-1.8696750450150636e+21,2513.18593296,3.173828125e-09,397.69728636310134,1.6725151420300112e+16
0.08555676046607825,7.54307373529458e+18,-1.866799904006272e+21,2872.47643362,3.173828125e-09,444.5117236714631,1.6969347114159888e+16
0.09411343651268608,8.550288097010119e+18,-1.8638801997048077e+21,3284.17483874,3.173828125e-09,497.0350916387278,1.7202584366467496e+16
0.1035257801639547,9.687787385886982e+18,-1.8609159678718137e+21,3756.01277618,3.173828125e-09,555.9697044959668,1.7425027492585726e+16
0.11387935818035018,1.0971970310503897e+19,-1.8579072207066314e+21,4296.86856453,3.173828125e-09,622.104152474076,1.7636870396812076e+16
0.1252682939983852,1.2421256016343087e+19,-1.8548539479606422e+21,4916.93721573,3.173828125e-09,696.3237978653755,1.783833333633179e+16
0.13779612339822375,1.4056328968059515e+19,-1.8517561179204456e+21,5627.92550458,3.173828125e-09,779.6225297790184,1.8029659779128932e+16
0.15157673573804614,1.5900413120030667e+19,-1.848613678260143e+21,6443.27576441,3.173828125e-09,873.1159263105126,1.8211113370959044e+16
0.16673540931185077,1.7979578840741708e+19,-1.845426556765344e+21,7378.42259494,3.173828125e-09,978.0559902496076,1.8382975023907556e+16
0.18340995024303586,2.0323086463509295e+19,-1.8421946619340278e+21,8451.99524632,3.0517578125e-09,1095.847643891504,1.8545540136710292e+16
0.20175194526733947,2.296377079055017e+19,-1.8389178834618747e+21,9684.06619914,3.0517578125e-09,1228.06719023315,1.8699115954877412e+16
0.22192813979407344,2.593847138499822e+19,-1.8355960926218045e+21,11097.8340155,3.0517578125e-09,1376.4829720964942,1.8844019076742984e+16
0.2441219537734808,2.9288514052340593e+19,-1.8322291425495433e+21,12720.2246633,3.0517578125e-09,1543.0784878220277,1.8980573109848584e+16
0.26853514915082893,3.306024954576004e+19,-1.8288168684486564e+21,14582.1518615,3.0517578125e-09,1730.0782524514416,1.910910648053935e+16
0.29538966406591183,3.730565623670266e+19,-1.8253590877300494e+21,16719.1044453,3.0517578125e-09,1939.9767271370747,1.9229950398300176e+16
0.324929630472503,4.2083014281216885e+19,-1.8218556001018648e+21,19171.8194216,3.0517578125e-09,2175.5706772915682,1.934343697516978e+16
0.35742359351975334,4.7457659693734306e+19,-1.8183061876265347e+21,21987.0530574,3.0517578125e-09,2439.9953621823233,1.9449897499513416e+16
0.3931669528717287,5.3502827723636965e+19,-1.814710614761929e+21,25218.4640998,3.0517578125e-09,2736.7650057925935,1.954966086251239e+16
0.43248464815890164,6.0300596028018885e+19,-1.811068628403493e+21,28927.6252214,3.0517578125e-09,3069.8180513846223,1.9643052134904436e+16
0.47573411297479185,6.7942939359671165e+19,-1.807379957943686e+21,33185.1810684,3.0517578125e-09,3443.5677609421027,1.97303912907708e+16
0.523308524272271,7.653290885725166e+19,-1.803644315364168e+21,38072.5727214,2.9296875e-09,3862.9587862445715,1.9811992074513996e+16
0.5756403766994982,8.618595055116968e+19,-1.799861395374922e+21,43690.0304154,2.9296875e-09,4333.530411522354,1.9888161006557436e+16
0.6332054143694481,9.703137940217627e+19,-1.7960308756129747e+21,50139.0869272,2.9296875e-09,4861.487249324094,1.995919652276509e+16
0.696526955806393,1.0921402709039233e+20,-1.792152416911621e+21,57542.613749,2.9296875e-09,5453.778262384384,2.0025388242066908e+16
0.7661806513870324,1.228960838930184e+20,-1.7882256636491032e+21,66041.5243198,2.9296875e-09,6118.185085973154,2.0087016356333496e+16
0.8427997165257357,1.3825915735462928e+20,-1.7842502441836308e+21,75797.3979599,2.9296875e-09,6863.42073866442,2.0144351136126572e+16
0.9270806881783094,1.5550657309267994e+20,-1.780225771379501e+21,86995.4809378,2.9296875e-09,7699.239936006488,2.019765254560173e+16
1.0197897569961403,1.7486594602422075e+20,-1.7761518432268e+21,99848.1181811,2.9296875e-09,8636.562362727247,2.0247169959530256e+16
1.1217697326957543,1.9659205358228357e+20,-1.772028043555208e+21,114598.676636,2.9296875e-09,9687.610416508018,2.02931419751649e+16
1.2339477059653299,2.209700461481523e+20,-1.7678539428422392e+21,131526.029806,2.9296875e-09,10866.06311174095,2.033579631148937e+16
1.357343476561863,2.483190340133237e+20,-1.7636290991080847e+21,150949.682702,2.9296875e-09,12187.228027673118,2.0375349788276236e+16
1.4930788242180495,2.7899609472875643e+20,-1.7593530588974633e+21,173235.627477,2.9296875e-09,13668.233403164246,2.0412008377334836e+16
1.6423877066398544,3.134007497759872e+20,-1.755025358339083e+21,198815.7875,2.8076171875e-09,15328.24272367429,2.0445967318350424e+16
1.80662747730384,3.519799651490309e+20,-1.7506455242760714e+21,228198.767456,2.8076171875e-09,17188.694417131523,2.0477411291821076e+16
1.987291225034224,3.952337367397316e+20,-1.7462130754589302e+21,261909.72019,2.8076171875e-09,19273.56957748794,2.0506514641759744e+16
2.186021347537647,4.437213284449998e+20,-1.7417275237919563e+21,300581.702471,2.8076171875e-09,21609.690971516186,2.0533441641061436e+16
2.404624482291412,4.9806823874426175e+20,-1.7371883756236332e+21,344939.483971,2.8076171875e-09,24227.056959672245,2.0558346792733996e+16
2.6450879305205532,5.5897398022080915e+20,-1.7325951330713275e+21,395812.684597,2.8076171875e-09,27159.2143800342,2.058137516053236e+16
2.9095977235726087,6.272207662229387e+20,-1.727947295370737e+21,454150.770529,2.8076171875e-09,30443.67491026713,2.060266272293587e+16
3.2005584959298696,7.036832096929132e+20,-1.723244360240841e+21,521040.168409,2.8076171875e-09,34122.379941697516,2.0622336744835696e+16
3.520615345522857,7.893391512595535e+20,-1.7184858252557104e+21,597723.792869,2.8076171875e-09,38242.219577911164,2.0640516161762704e+16
3.872677880075143,8.852817471332718e+20,-1.713671189215273e+21,685623.323011,2.8076171875e-09,42855.612014524755,2.065731197195899e+16
4.259946668082658,9.92732962315945e+20,-1.7087999535081346e+21,786364.609489,2.8076171875e-09,48021.15027437126,2.0672827632072852e+16
4.685942334890924,1.1130586313156208e+21,-1.7038716234606895e+21,901806.645928,2.8076171875e-09,53804.324071616116,2.068715945272515e+16
5.154537568380016,1.2477852671287655e+21,-1.698885709668344e+21,1034167.04008,2.685546875e-09,60278.325468503375,2.0700396990635684e+16
5.669992325218018,1.3986188199357225e+21,-1.693841729306876e+21,1186034.47701,2.685546875e-09,67524.94797993872,2.071262343439708e+16
6.236992557739821,1.567465609984508e+21,-1.6887392074253048e+21,1360039.13989,2.685546875e-09,75635.58988544528,2.0723915981332732e+16
6.860692813513804,1.756455684779045e+21,-1.6835776782261908e+21,1559377.2269,2.685546875e-09,84712.37373812826,2.0734346203174336e+16
7.546763094865185,1.9679688792311107e+21,-1.67835668634477e+21,1787701.34288,2.685546875e-09,94869.39543032616,2.0743980398572516e+16
8.301440404351705,2.204663889205364e+21,-1.673075788143056e+21,2049184.88545,2.685546875e-09,106234.11770122066,2.075287993077606e+16
9.131585444786877,2.469510704237089e+21,-1.667734553036285e+21,2348595.3961,2.685546875e-09,118948.92466944402,2.076110154925566e+16
10.044744989265565,2.7658267845278323e+21,-1.662332564863058e+21,2691378.10796,2.685546875e-09,133172.85586160392,2.0768697694687412e+16
11.049220488192123,3.097317411056412e+21,-1.6568694232947425e+21,3083751.0882,2.685546875e-09,149083.54030473428,2.0775716787549708e+16
12.154143537011336,3.4681206862714965e+21,-1.6513447452539976e+21,3532813.56112,2.685546875e-09,166879.3535785221,2.0782203501523236e+16
13.36955889071247,3.882857716902908e+21,-1.6457581662815453e+21,4046669.20934,2.685546875e-09,186781.8233063048,2.078819902371005e+16
