t(s),inventory(He/m2),flux_surface_left(He/m2/s),max_ib(He),x_max_ib(m),mean_ib(He),total_bubbles
1e-06,34079.03655168206,-9.610313940304751e+20,16054.5234027,1.5625e-08,10820.468461611214,3.1494973320783144
2.1000000000000002e-06,325403.36780299223,-9.773925715549876e+20,8291.96210398,1.5625e-08,4573.024492631886,71.15714519510801
3.3100000000000005e-06,1258694.1889275347,-9.816451304415925e+20,4493.74565217,1.5625e-08,2087.1884159011115,603.0572895758971
4.641000000000001e-06,3314221.1311761364,-9.837606732285899e+20,2539.36891721,1.5625e-08,1012.9436623716194,3271.8711358699884
6.105100000000001e-06,7054122.076005954,-9.85071438780199e+20,1486.31443982,1.5625e-08,517.3384541662855,13635.410279666905
7.715610000000002e-06,13156701.772145975,-9.85977966674181e+20,896.3350502,1.5625e-08,276.2909222961242,47619.01572012138
9.487171000000002e-06,22519110.092767876,-9.866473792054373e+20,554.776208539,1.5625e-08,153.85494938984408,146365.84771613695
1.1435888100000002e-05,36484175.931627356,-9.871633815092455e+20,351.593714552,1.46484375e-08,89.36736984945492,408249.40907500463
1.3579476910000003e-05,57305133.95736552,-9.875731691728132e+20,227.703773093,1.46484375e-08,54.33715100446714,1054621.6151938916
1.5937424601000003e-05,89059891.59458478,-9.879056781763093e+20,150.597603581,1.46484375e-08,34.79544558020819,2559527.2631094703
1.8531167061100006e-05,139392075.005713,-9.881798002262261e+20,101.745596531,1.46484375e-08,23.638042990721548,5896938.044339265
2.1384283767210007e-05,222731167.13346353,-9.88408491403864e+20,70.3051622762,1.46484375e-08,17.135997778231626,12997852.241577998
2.452271214393101e-05,366090684.2215017,-9.88600997784107e+20,49.7867685159,1.46484375e-08,13.277376379062545,27572516.87154098
2.7974983358324114e-05,619251386.1153767,-9.887641390777348e+20,36.2282873887,1.46484375e-08,10.950018011808266,56552544.977331474
3.177248169415653e-05,1072232162.5642768,-9.889030873591664e+20,27.1677085293,1.46484375e-08,9.52576464660636,112561269.60330363
3.5949729863572185e-05,1884605703.7526562,-9.890218595030704e+20,21.0509870733,1.46484375e-08,8.642926562906219,218051801.09258616
4.0544702849929404e-05,3333652813.0359817,-9.891236395422408e+20,16.8833100213,1.46484375e-08,8.089597552673222,412091305.0778861
4.559917313492235e-05,5891846920.207663,-9.892109959442947e+20,14.0197379066,1.46484375e-08,7.739656313585123,761254335.0104486
5.115909044841459e-05,10349047605.562965,-9.892860317683636e+20,12.0373327487,1.46484375e-08,7.5169543023269245,1376760745.0213375
5.727499949325605e-05,18001418588.000935,-9.893504907158104e+20,10.655832053,1.46484375e-08,7.374909185200593,2440900373.949663
6.400249944258165e-05,30937824592.17619,-9.894058334882532e+20,9.68774104303,1.46484375e-08,7.284683113886985,4246969169.2145934
7.140274938683982e-05,52465585339.26487,-9.894532937401576e+20,9.00652960724,1.46484375e-08,7.228230024147563,7258427742.890242
7.954302432552381e-05,87731093082.39915,-9.89493919761449e+20,8.52612914214,1.46484375e-08,7.194149367479882,12194783372.023792
8.84973267580762e-05,144606767829.00867,-9.89528606032866e+20,8.18757312915,1.46484375e-08,7.17518157888583,20153743321.91651
9.834705943388383e-05,234933541492.40073,-9.895581175052152e+20,7.9502071852,1.46484375e-08,7.166677185805176,32781376278.218113
0.00010918176537727222,376226372273.1644,-9.89583108597761e+20,7.78585360907,1.46484375e-08,7.165650736137934,52504145977.38808
0.00012109994191499945,593967364182.4156,-9.896041383324921e+20,7.67490533826,1.46484375e-08,7.17019020466427,82838439041.13377
0.0001342099361064994,924624376534.7098,-9.896216826225408e+20,7.60395642786,1.3671875e-08,7.179084910299011,128794183114.93393
0.00014863092971714937,1419539442907.279,-9.896361444532772e+20,7.56331798941,1.3671875e-08,7.19158918829763,197388839342.65826
0.00016449402268886432,2149827488521.133,-9.89647862493636e+20,7.54625147904,1.3671875e-08,7.207271269566829,298285912672.5144
0.00018194342495775077,3212408602170.8555,-9.896571185267345e+20,7.54851679882,1.26953125e-08,7.225916175409199,444567654009.4847
0.00020113776745352586,4737264345319.6045,-9.896641439755281e+20,7.56713709083,1.26953125e-08,7.247463194674502,653644484707.5024
0.00022225154419887848,6895960010301.043,-9.896691257098283e+20,7.60047553623,1.171875e-08,7.271965726527994,948293799728.0035
0.00024547669861876636,9911412862093.154,-9.896722112489878e+20,7.64753306247,1.07421875e-08,7.299565743508473,1357808561544.5557
0.000271024368480643,14068817071042.217,-9.896735134165446e+20,7.70829129447,8.7890625e-09,7.330477925861474,1919222349938.235
0.00029912680532870735,19727568605235.39,-9.896731144583846e+20,7.7831241141,7.32421875e-09,7.364980282579108,2678563668649.373
0.0003300394858615781,27333979999381.848,-9.896710696055897e+20,7.8731012427,5.2490234375e-09,7.403409197973077,3692080130714.0244
0.0003640434344477359,37434549248186.04,-9.896674100486764e+20,7.97876604219,4.5166015625e-09,7.446157564771454,5027364640427.808
0.00040144777789250956,50689561871223.47,-9.896621452925676e+20,8.10029855157,4.2724609375e-09,7.4936751342428485,6764312698797.701
0.00044259255568176054,67886869827255.836,-9.896552648806644e+20,8.23919542585,4.2724609375e-09,7.546470523628809,8995843767585.756
0.00048785181124993667,89955808916176.73,-9.896467395085831e+20,8.39746682067,4.150390625e-09,7.605114529809451,11828330600884.535
0.0005376369923749304,117981383613429.4,-9.896365215876113e+20,8.57741220239,4.150390625e-09,7.670244542839667,15381697800439.426
0.0005924006916124235,153219053269918.6,-9.896245453572472e+20,8.78172603444,4.0283203125e-09,7.742569957416197,19789172601941.84
0.0006526407607736659,197110678433410.56,-9.896107266776586e+20,9.01347105811,4.0283203125e-09,7.822878559392585,25196694149974.816
0.0007189048368510325,251302409729687.4,-9.895949626504906e+20,9.27601431646,4.0283203125e-09,7.912043927342862,31762008911657.227
0.0007917953205361358,317665504180298.6,-9.895771312171492e+20,9.57317770141,4.0283203125e-09,8.011033941251835,39653496229059.664
0.0008719748525897494,398321219822284.94,-9.895570908680049e+20,9.90924174755,4.0283203125e-09,8.12092053454834,49048776937014.85
0.0009601723378487245,495671061777703.4,-9.89534680567911e+20,10.2890008429,4.0283203125e-09,8.242890863178017,60133158379170.766
0.001057189571633597,612433733516328.6,-9.895097199689961e+20,10.7178288522,4.0283203125e-09,8.378260096727722,73097961443751.97
0.001163908528796957,751690196547409.9,-9.894820099477248e+20,11.2017566879,4.0283203125e-09,8.528486062054307,88138761214829.94
0.0012812993816766526,916938276813925.2,-9.894513334754133e+20,11.7475634878,4.0283203125e-09,8.69518599004335,105453555319447.95
0.001410429319844318,1112158295755986.8,-9.894174568132521e+20,12.362883202,4.0283203125e-09,8.880155632234617,125240856333519.17
0.00155247225182875,1341891266159676.2,-9.893801310153306e+20,13.0563285728,4.0283203125e-09,9.085391028044809,147697689842685.12
0.0017087194770116251,1611331290941601.8,-9.893390937244007e+20,13.8376347395,4.0283203125e-09,9.313113217762506,173017470448912.6
0.0018805914247127878,1926433944254062.2,-9.892940712516783e+20,14.7178250076,4.0283203125e-09,9.565796214327552,201387725714736.56
0.0020696505671840668,2294042599736498.0,-9.892447809397148e+20,15.7094017171,4.0283203125e-09,9.846198571117231,232987643217538.4
0.0022776156239024737,2722034896253836.0,-9.891909338122064e+20,16.826565617,4.0283203125e-09,10.15739891618418,267985428032831.5
0.0025063771862927214,3219491789882768.5,-9.891322375136911e+20,18.085467706,4.0283203125e-09,10.50283586770625,306535475792966.44
0.0027580149049219937,3796891924502932.0,-9.890683995338472e+20,19.5044981467,4.0283203125e-09,10.886352802163207,348775388185881.56
0.0030348163954141932,4466334356163626.0,-9.889991306955533e+20,21.104617591,4.0283203125e-09,11.312248016585464,394822881324322.56
0.0033392980349556127,5241792986054260.0,-9.88924148864273e+20,22.9097370944,4.0283203125e-09,11.785330909185788,444772660729337.06
0.0036742278384511743,6139406395696019.0,-9.888431828110246e+20,24.9471537414,4.0283203125e-09,12.310984898401989,498693357709579.9
0.004042650622296292,7177807143149738.0,-9.887559761350613e+20,27.2480501912,4.0283203125e-09,12.895237908369774,556624638812667.1
0.004447915684525921,8378494982399091.0,-9.886622911287192e+20,29.8480675842,4.0283203125e-09,13.544841368706214,618574611125135.2
0.004893707252978514,9766258924993852.0,-9.885619124487877e+20,32.7879626735,4.0283203125e-09,14.267358808283488,684517650129024.5
0.005384077978276365,1.1369653591154156e+16,-9.88454650449002e+20,36.1143616856,4.0283203125e-09,15.071265267176358,754392772577367.8
0.005923485776104002,1.322153591535189e+16,-9.883403440290053e+20,39.8806253159,4.0283203125e-09,15.96605890992728,828102663903556.2
0.006516834353714403,1.535966899707196e+16,-9.882188628672639e+20,44.1478414712,4.0283203125e-09,16.962386399473377,905513448128314.2
0.007169517789085845,1.782740073807488e+16,-9.880901089290285e+20,48.9859649419,4.0283203125e-09,18.072183788286026,986455258917308.8
0.00788746956799443,2.0674425898653244e+16,-9.87954017173874e+20,54.4751261731,4.0283203125e-09,19.308834905846656,1070723635033675.2
0.008677216524793875,2.395764135141805e+16,-9.878105554281173e+20,60.7072680558,3.90625e-09,20.687349474052,1158081724363382.2
0.009545938177273262,2.7742105625478556e+16,-9.876597234317796e+20,67.7877601807,3.90625e-09,22.224563468650228,1248263241013094.5
0.01050153199500059,3.2102115329529844e+16,-9.875015511137118e+20,75.8370699009,3.90625e-09,23.939364568864292,1340976083019433.2
0.01155268519450065,3.712241273244593e+16,-9.873360961879074e+20,84.9935239269,3.90625e-09,25.852945901752186,1435906487157038.2
0.012708953713950717,4.289954067827482e+16,-9.871634411953898e+20,95.4157658364,3.90625e-09,27.989091695107213,1532723574798038.5
0.01398084908534579,4.954336313406026e+16,-9.869836901369575e+20,107.28578472,3.90625e-09,30.374498905538395,1631084130412655.8
0.015379933993880369,5.717877203087005e+16,-9.867969648512991e+20,120.812402886,3.90625e-09,33.03913939052339,1730637452598739.0
0.016918927393268408,6.594760368125627e+16,-9.866034012908637e+20,136.23529348,3.90625e-09,36.01666774985776,1831030125809368.2
0.01861182013259525,7.60107909650742e+16,-9.86403145835728e+20,153.829609766,3.90625e-09,39.344880579980895,1931910577554258.2
0.020474002145854774,8.755078070089917e+16,-9.861963517659707e+20,173.911320447,3.90625e-09,43.06623357293699,2032933308472939.5
0.022522402360440254,1.0077424919954326e+17,-9.859831759884394e+20,196.843359852,3.90625e-09,47.22842366057766,2133762708740609.0
0.024775642596484283,1.1591515297410605e+17,-9.857637760871604e+20,223.042718565,3.90625e-09,51.885044265829045,2234076401288657.5
0.027254206856132713,1.3323815600975038e+17,-9.855383077404689e+20,252.988619351,3.90625e-09,57.09632268924117,2333568078191782.5
0.029980627541745988,1.5304247993572634e+17,-9.85306922524187e+20,287.231945485,3.90625e-09,62.92994974443478,2431949819716178.5
0.032979690295920586,1.7566622895933222e+17,-9.850697661001315e+20,326.406114295,3.90625e-09,69.4620129751569,2528953904951751.0
0.03627865932551265,2.0149124759127578e+17,-9.848269767735554e+20,371.239618381,3.90625e-09,76.77804615521657,2624334138224039.0
0.03990752525806392,2.3094857609697245e+17,-9.845786843918356e+20,422.570491224,3.90625e-09,84.97420930757562,2717866726609045.5
0.043899277783870316,2.6452457633980826e+17,-9.843250095495774e+20,481.362993452,3.90625e-09,94.15861519889607,2809350751187657.5
0.048290205562257354,3.027678093407661e+17,-9.840660630615695e+20,548.726861614,3.90625e-09,104.45282019134358,2898608278705505.5
0.0531202261184831,3.4629675557530656e+17,-9.838019456641584e+20,625.939514024,3.90625e-09,115.99349948719092,2985484161666731.0
0.058433248730331414,3.958084798861984e+17,-9.835327479067177e+20,714.47166895,3.90625e-09,128.93432920920074,3069845574206885.0
0.06427757360336456,4.520883550473083e+17,-9.832585501973988e+20,816.016900508,3.90625e-09,143.44810044944606,3151581328932502.5
0.07070633096370102,5.1602097162129606e+17,-9.829794229706921e+20,932.525738438,3.90625e-09,159.72909342324863,3230601016772496.5
0.07777796406007113,5.886023769846789e+17,-9.826954269480755e+20,1066.26139156,3.7841796875e-09,177.99574321939633,3306834008154743.5
0.08555676046607825,6.709538034383176e+17,-9.824066134668066e+20,1219.80613499,3.7841796875e-09,198.4936323833436,3380228349806852.5
0.09411343651268608,7.643370643943677e+17,-9.82113024855624e+20,1396.14079249,3.7841796875e-09,221.49884975239115,3450749587407807.5
0.1035257801639547,8.701718189724005e+17,-9.818146948395374e+20,1598.70450328,3.7841796875e-09,247.32175963233706,3518379540344441.5
0.11387935818035018,9.90054929216569e+17,-9.815116489590083e+20,1831.46107394,3.7841796875e-09,276.3112306215006,3583115051059129.0
0.1252682939983852,1.1257821608640588e+18,-9.81203904991567e+20,2098.97951022,3.7841796875e-09,308.8593792154031,3644966727977917.5
0.13779612339822375,1.279372508490058e+18,-9.808914733663659e+20,2406.52693089,3.7841796875e-09,345.4068898368214,3703957697816811.5
0.15157673573804614,1.4530954593043028e+18,-9.805743575642424e+20,2760.17576339,3.7841796875e-09,386.4489802134607,3760122380195348.5
0.16673540931185077,1.6495015473019507e+18,-9.802525544976882e+20,3166.92741086,3.7841796875e-09,432.5420891613635,3813505294941575.5
0.18340995024303586,1.871456591351858e+18,-9.799260548666656e+20,3634.85491372,3.7841796875e-09,484.31137293027916,3864159910242848.0
0.20175194526733947,2.1221800576675896e+18,-9.795948434875546e+20,4173.2675134,3.7841796875e-09,542.459106443403,3912147537869761.0
0.22192813979407344,2.405288039545426e+18,-9.792588995937099e+20,4792.90046778,3.7841796875e-09,607.7740971492663,3957536280054231.0
0.2441219537734808,2.724841405933466e+18,-9.789181971071115e+20,5506.1339773,3.7841796875e-09,681.1422319441872,4000400031218061.0
0.26853514915082893,3.08539973605917e+18,-9.785727048815191e+20,6327.24566612,3.7841796875e-09,763.5582918839157,4040817536597776.0
0.29538966406591183,3.492081730822886e+18,-9.782223869182242e+20,7272.7017376,3.7841796875e-09,856.139185366704,4078871508874047.5
0.324929630472503,3.950632873889227e+18,-9.778672025559723e+20,8361.49269851,3.7841796875e-09,960.1387683427362,4114647803158999.5
0.35742359351975334,4.467501207421449e+18,-9.775071066368366e+20,9615.60924079,3.662109375e-09,1076.964440117456,4148234650100623.5
0.3931669528717287,5.049922190364667e+18,-9.771420496496727e+20,11060.4821288,3.662109375e-09,1208.195725725334,4179721946403156.5
0.43248464815890164,5.706013722398041e+18,-9.767719778525516e+20,12725.0960428,3.662109375e-09,1355.6050809447975,4209200601713000.0
0.47573411297479185,6.444882545593121e+18,-9.763968333752605e+20,14643.075569,3.662109375e-09,1521.181184123857,4236761940560769.0
0.523308524272271,7.276743380068597e+18,-9.760165543029595e+20,16853.1998827,3.662109375e-09,1707.1550104498588,4262497157859774.5
0.5756403766994982,8.213052311330267e+18,-9.756310747424512e+20,19400.1916017,3.662109375e-09,1916.029019523028,4286496826324064.0
0.6332054143694481,9.26665612756951e+18,-9.752403248733387e+20,22335.6258628,3.662109375e-09,2150.6098265312,4308850454066813.5
0.696526955806393,1.0451959507230704e+19,-9.748442309874264e+20,25718.9778526,3.662109375e-09,2414.0447714696197,4329646090560189.0
0.7661806513870324,1.1785112183186694e+19,-9.744427155208236e+20,29618.8297719,3.662109375e-09,2709.8628502628612,4348969979068689.5
0.8427997165257357,1.3284218462727332e+19,-9.740356970840812e+20,34114.2613866,3.662109375e-09,3042.020526954813,4366906253596316.0
0.9270806881783094,1.496957176543215e+19,-9.736230904960932e+20,39296.4519575,3.662109375e-09,3414.9530080460695,4383536678297449.0
1.0197897569961403,1.6863917157428042e+19,-9.732048068272849e+20,45270.5255468,3.662109375e-09,3833.6316293988107,4398940427166873.5
1.1217697326957543,1.8992745214476018e+19,-9.727807534571163e+20,52157.6765321,3.662109375e-09,4303.628083847467,4413193901619956.0
1.2339477059653299,2.138462094222785e+19,-9.723508341504526e+20,60097.6177409,3.662109375e-09,4831.186304874743,4426370583276913.0
1.357343476561863,2.4071551924724724e+19,-9.719149491575828e+20,69251.400068,3.662109375e-09,5423.302919725556,4438540918887646.0
1.4930788242180495,2.708940036720506e+19,-9.714729953436151e+20,79804.6598927,3.662109375e-09,6087.817295567652,4449772233954524.0
1.6423877066398544,3.0478344252393198e+19,-9.71024866354349e+20,91973.6176887,3.5400390625e-09,6833.512326187783,4460128671399671.5
1.80662747730384,3.428339344703778e+19,-9.705704528263043e+20,106005.162909,3.5400390625e-09,7670.227245467376,4469671151828926.5
1.987291225034224,3.855496728433193e+19,-9.701096426467283e+20,122182.460761,3.5400390625e-09,8608.983908294134,4478457352811056.5
2.186021347537647,4.334954091571421e+19,-9.696423212632918e+20,140833.386962,3.5400390625e-09,9662.128149987859,4486541706214969.5
2.404624482291412,4.873036858077069e+19,-9.691683720322767e+20,162335.795823,3.5400390625e-09,10843.48802173657,4493975414837650.5
2.6450879305205532,5.476829289725541e+19,-9.686876765791022e+20,187125.123636,3.5400390625e-09,12168.550902472613,4500806491767779.5
2.9095977235726087,6.154265033732789e+19,-9.682001151294902e+20,215703.148321,3.5400390625e-09,13654.66170881885,4507079827366256.0
3.2005584959298696,6.914228424718662e+19,-9.677055667580653e+20,248648.079278,3.5400390625e-09,15321.24466829097,4512837288623444.0
3.520615345522857,7.766667810477158e+19,-9.672039094988543e+20,286626.175981,3.5400390625e-09,17190.051393656868,4518117853529548.0
3.872677880075143,8.722722321659539e+19,-9.666950202723684e+20,330405.121696,3.5400390625e-09,19285.438307448894,4522957779129363.0
4.259946668082658,9.794863675433538e+19,-9.661787746069512e+20,380869.410707,3.5400390625e-09,21634.67682551258,4527390796927919.0
4.685942334890924,1.0997054794933068e+20,-9.656550461645936e+20,439038.044652,3.5400390625e-09,24268.300127048362,4531448324506356.0
5.154537568380016,1.2344927242247751e+20,-9.651237061168992e+20,506084.877352,3.5400390625e-09,27220.490823532844,4535159678889857.0
5.669992325218018,1.3855979705062928e+20,-9.645846224477769e+20,583361.999241,3.5400390625e-09,30529.51439460461,4538552276321714.0
6.236992557739821,1.5549800047965546e+20,-9.640376592786155e+20,672426.613641,3.5400390625e-09,34238.203886510826,4541651804956936.0
6.860692813513804,1.7448313741046356e+20,-9.634826763146442e+20,775071.928961,3.5400390625e-09,38394.50206674425,4544482361228321.0
7.546763094865185,1.9576061813159117e+20,-9.629195284967054e+20,893408.601259,3.41796875e-09,43052.06799496545,4547066546361573.0
8.301440404351705,2.1960511848043695e+20,-9.62348065913205e+20,1029786.74127,3.41796875e-09,48270.95580458706,4549425525557306.0
9.131585444786877,2.4632405952320235e+20,-9.617681339877852e+20,1186943.86444,3.41796875e-09,54118.37439425416,4551579057580765.0
10.044744989265565,2.7626150080125053e+20,-9.611795739166605e+20,1368034.6346,3.41796875e-09,60669.53771212036,4553545506018582.0
11.049220488192123,3.098024960625672e+20,-9.605822232930908e+20,1576690.39132,3.41796875e-09,68008.61639328902,4555341844789215.0
12.154143537011336,3.4737796605904185e+20,-9.599759168320876e+20,1817090.98227,3.41796875e-09,76229.80270421704,4556983669588126.0
13.36955889071247,3.8947014933440974e+20,-9.593604871003668e+20,2094047.44835,3.41796875e-09,85438.50208576603,4558485224184368.0
14.706515779783718,4.366186990547768e+20,-9.587357651656678e+20,2413097.18716,3.41796875e-09,95752.66610115142,4559859446561420.0
16.177168357762092,4.8942750195016466e+20,-9.581015811029244e+20,2780613.45475,3.41796875e-09,107304.28331884815,4561118035669281.0
17.794886193538304,5.485723044501389e+20,-9.574577643262227e+20,3203931.33617,3.41796875e-09,120241.04662281729,4562271535867023.0
19.574375812892136,6.148092412171539e+20,-9.568041437475656e+20,3691492.63041,3.41796875e-09,134728.21766716475,4563329433600842.0
