t(s),inventory(He/m2),flux_surface_left(He/m2/s),max_ib(He),x_max_ib(m),mean_ib(He),total_bubbles
1e-06,4.586693980904916e-07,-7.146263169238103e+19,7.00125105429,9.765625e-09,7.000772943705416,6.551696530922256e-08
2.1000000000000002e-06,1.0565622369410175e-05,-7.297975306887836e+19,7.00204327661,1.26953125e-08,7.000870231663136,1.509187003870545e-06
3.3100000000000005e-06,9.230659714317054e-05,-7.338698539619114e+19,7.00184069381,1.3671875e-08,7.000537186563078,1.3185644855989768e-05
4.641000000000001e-06,0.0005195496871631932,-7.359472945567927e+19,7.00157313204,1.3671875e-08,7.0004719561432625,7.421638004095745e-05
6.105100000000001e-06,0.0022579831629215637,-7.372692420993505e+19,7.00148631942,1.26953125e-08,7.000596924682702,0.00032254151856113406
7.715610000000002e-06,0.008263243234798698,-7.3820999906785e+19,7.00153824301,1.171875e-08,7.0007861701387295,0.001180330756286326
9.487171000000002e-06,0.02674132715570429,-7.389262897125314e+19,7.00168377888,9.765625e-09,7.0009943716916245,0.0038196470009792165
1.1435888100000002e-05,0.0789074387966693,-7.394968356291284e+19,7.00189827299,7.2021484375e-09,7.001210760660491,0.011270541838284154
1.3579476910000003e-05,0.21670449205721806,-7.399661147603296e+19,7.00216963523,4.5166015625e-09,7.001435667580973,0.03095143658330441
1.5937424601000003e-05,0.561968830329474,-7.403614266323726e+19,7.00247869859,4.2724609375e-09,7.001672455954401,0.08026208507533959
1.8531167061100006e-05,1.3907423351939414,-7.407005921845895e+19,7.00282046725,4.150390625e-09,7.001925025913765,0.1986228544360123
2.1384283767210007e-05,3.3108267083757865,-7.40995813699007e+19,7.00319723358,4.150390625e-09,7.002197158128321,0.4728268332936753
2.452271214393101e-05,7.628816521066658,-7.412557709661775e+19,7.00361239716,4.150390625e-09,7.002492434868162,1.08944302218447
2.7974983358324114e-05,17.096806793801466,-7.414868336984408e+19,7.00406981785,4.150390625e-09,7.002814321401689,2.4414194078444957
3.177248169415653e-05,37.41055898733038,-7.416937995132351e+19,7.00457379067,4.150390625e-09,7.003166275384449,5.341949272120727
3.5949729863572185e-05,80.17871341717833,-7.41880362515845e+19,7.00512907798,4.150390625e-09,7.0035518468844025,11.44829297620558
4.0544702849929404e-05,168.74329115677273,-7.420494215976336e+19,7.0057409526,4.150390625e-09,7.003974762419011,24.092504168089363
4.559917313492235e-05,349.47691261676306,-7.42203289534493e+19,7.00641524958,4.150390625e-09,7.004438995342747,49.89363357281437
5.115909044841459e-05,713.5117581113807,-7.42343838581356e+19,7.0071584261,4.150390625e-09,7.004948826727107,101.85823990448075
5.727499949325605e-05,1438.1828161741912,-7.424726042062735e+19,7.00797762973,4.150390625e-09,7.005508900539799,205.29312525223887
6.400249944258165e-05,2865.45138007844,-7.425908605150975e+19,7.00888077531,4.150390625e-09,7.006124276137614,408.9923711227866
7.140274938683982e-05,5649.202386108917,-7.426996760933512e+19,7.00987665994,4.2724609375e-09,7.006800480355278,806.2456469179319
7.954302432552381e-05,11029.929125257926,-7.427999560267443e+19,7.01097507577,4.2724609375e-09,7.007543560919814,1574.0079286514106
8.84973267580762e-05,21343.432680636768,-7.428924739893959e+19,7.01218672075,4.2724609375e-09,7.008360142539561,3045.4246423618756
9.834705943388383e-05,40956.52438944829,-7.429778970774736e+19,7.01352356353,4.2724609375e-09,7.009257486777375,5843.204428815861
0.00010918176537727222,77976.63399441361,-7.430568052649207e+19,7.01499889775,4.2724609375e-09,7.010243556681969,11123.241776683844
0.00012109994191499945,147354.53426409708,-7.431297068176261e+19,7.01662749949,4.2724609375e-09,7.011327087091549,21016.6395653384
0.0001342099361064994,276477.5209111983,-7.431970506312629e+19,7.01842580517,4.2724609375e-09,7.012517661525897,39426.28514550334
0.00014863092971714937,515183.2823451291,-7.432592361988432e+19,7.02041211288,4.2724609375e-09,7.013825796626897,73452.53464847845
0.00016449402268886432,953563.6216582573,-7.433166217303518e+19,7.02260681035,4.2724609375e-09,7.015263035195074,135926.99473623393
0.00018194342495775077,1753391.5743747256,-7.433695308149e+19,7.02503263342,4.2724609375e-09,7.016842048987509,249883.28968125058
0.00020113776745352586,3203187.573547633,-7.434182579200049e+19,7.02771495952,4.2724609375e-09,7.0185767525959335,456387.0548773129
0.00022225154419887848,5813969.079621173,-7.434630729521686e+19,7.03068214104,4.2724609375e-09,7.020482429906076,828143.8117207788
0.00024547669861876636,10484420.856672583,-7.435042250504302e+19,7.03396594672,4.39453125e-09,7.022575874855318,1492959.4273537968
0.000271024368480643,18783464.94109279,-7.43541945744852e+19,7.03760188748,4.39453125e-09,7.0248755484530925,2673850.207243741
0.00029912680532870735,33429512.323601317,-7.435764515812478e+19,7.04162966929,4.39453125e-09,7.027401754309663,4757023.077996096
0.0003300394858615781,59095985.22493088,-7.43607946289868e+19,7.04609390599,4.39453125e-09,7.030176835238062,8406045.339957615
0.0003640434344477359,103752506.15587026,-7.43636622557922e+19,7.05104469465,4.39453125e-09,7.0332253938491185,14751767.552708695
0.00040144777789250956,180876025.1213875,-7.436626634533259e+19,7.05653834991,4.39453125e-09,7.03657454044969,25705124.57185285
0.00044259255568176054,313058705.15744376,-7.436862435393865e+19,7.0626382447,4.39453125e-09,7.040254171980637,44466960.63948652
0.00048785181124993667,537831676.6324538,-7.437075297164062e+19,7.06941577368,4.39453125e-09,7.044297286182994,76349940.21154976
0.0005376369923749304,916960115.6028665,-7.437266818250701e+19,7.07695145828,4.39453125e-09,7.048740335659159,130088508.29190286
0.0005924006916124235,1551104934.3982635,-7.437438530463308e+19,7.08533621549,4.39453125e-09,7.053623626995561,219901857.03443113
0.0006526407607736659,2602666682.6845493,-7.437591901319419e+19,7.09467281572,4.39453125e-09,7.0589917706368315,368702325.6650925
0.0007189048368510325,4330923696.315079,-7.43772833498093e+19,7.10507755936,4.39453125e-09,7.06489418775413,613020320.0809498
0.0007917953205361358,7145361863.027223,-7.437849172117042e+19,7.11668220579,4.39453125e-09,7.071385680940568,1010461341.7262816
0.0008719748525897494,11685491474.952871,-7.437955688954554e+19,7.12963619383,4.39453125e-09,7.078527076205542,1650836586.36182
0.0009601723378487245,18938579897.239323,-7.438049095742e+19,7.14410919784,4.39453125e-09,7.086385944435637,2672530122.6516247
0.001057189571633597,30410696689.635452,-7.438130534826623e+19,7.16029406997,4.39453125e-09,7.09503741124559,4286192577.5662136
0.001163908528796957,48371315059.08933,-7.438201078522731e+19,7.17841022466,4.39453125e-09,7.10456506496871,6808483646.324713
0.0012812993816766526,76197387359.98581,-7.438261726936832e+19,7.19870752846,4.39453125e-09,7.1150619734123755,10709307613.16217
0.001410429319844318,118849111792.3967,-7.438313405903977e+19,7.22147076392,4.39453125e-09,7.1266318209330946,16676757657.565605
0.00155247225182875,183516130707.27283,-7.438356965180196e+19,7.24702474209,4.39453125e-09,7.139390178330939,25704734735.505882
0.0017087194770116251,280479003091.3441,-7.438393177024494e+19,7.2757401428,4.39453125e-09,7.153465919000926,39208826360.14804
0.0018805914247127878,424235571773.6354,-7.438422735290709e+19,7.30804016458,4.39453125e-09,7.169002795662034,59176371367.903564
0.0020696505671840668,634944171940.5997,-7.438446255133193e+19,7.34440806705,4.39453125e-09,7.186161192765457,88356516770.01328
0.0022776156239024737,940234252788.039,-7.438464273408824e+19,7.38539568597,4.39453125e-09,7.205120070317328,130495292737.93617
0.0025063771862927214,1377428726732.109,-7.438477249829493e+19,7.43163299574,4.39453125e-09,7.226079115297509,190619104047.1881
0.0027580149049219937,1996210377986.2354,-7.438485568880045e+19,7.48383878452,4.39453125e-09,7.2492611171078,275367426519.5531
0.0030348163954141932,2861746782286.3413,-7.438489542467006e+19,7.5428324946,4.39453125e-09,7.2749145835739135,393371873911.46857
0.0033392980349556127,4058265244452.6475,-7.43848941320344e+19,7.60954726629,4.39453125e-09,7.303316614051735,555674285932.5665
0.0036742278384511743,5693043339670.524,-7.438485358171233e+19,7.68504420906,4.39453125e-09,7.334776046332432,776171392788.0846
0.004042650622296292,7900755163937.171,-7.438477492942653e+19,7.77052791466,4.39453125e-09,7.36963689458415,1072068444748.3882
0.004447915684525921,10848092896565.734,-7.4384658755991e+19,7.86736322715,4.39453125e-09,7.408282096902636,1464319629661.6816
0.004893707252978514,14738572882269.36,-7.43845051046858e+19,7.97709330234,4.39453125e-09,7.451137593677138,1978029891002.975
0.005384077978276365,19817440046415.215,-7.438431351322308e+19,8.10145903149,4.39453125e-09,7.498676762505397,2642791611648.8228
0.005923485776104002,26376607723074.055,-7.43840830382833e+19,8.24241997683,4.39453125e-09,7.551425242468979,3492931052900.165
0.006516834353714403,34759613361860.895,-7.438381227150728e+19,8.40217707595,4.39453125e-09,7.6099661908352925,4567643599221.507
0.007169517789085845,45366632683140.336,-7.438349934694975e+19,8.5831975165,4.39453125e-09,7.674946029206235,5911003479438.445
0.00788746956799443,58659671271851.88,-7.438314194115358e+19,8.78824235818,4.39453125e-09,7.7470807540589,7571841979460.268
0.008677216524793875,75168136468916.0,-7.438273726799285e+19,9.02039767375,4.39453125e-09,7.827162908433408,9603497122555.836
0.009545938177273262,95495075550331.77,-7.43822820710931e+19,9.28311018043,4.39453125e-09,7.916069336656254,12063446072677.89
0.01050153199500059,120324440633303.08,-7.438177261686556e+19,9.58022852058,4.39453125e-09,8.014769871382114,15012837868612.893
0.01155268519450065,150429800419720.06,-7.438120469099099e+19,9.91605151408,4.39453125e-09,8.124337130373677,18515947578950.492
0.012708953713950717,186684960791036.9,-7.438057360063511e+19,10.2953848372,4.39453125e-09,8.24595762752793,22639573136759.312
0.01398084908534579,230076981114406.03,-7.437987418393176e+19,10.7236076877,4.39453125e-09,8.380944426930354,27452393118740.1
0.015379933993880369,281722085092220.7,-7.43791008275017e+19,11.2067510856,4.39453125e-09,8.53075158879096,33024298288370.207
0.016918927393268408,342884970777801.94,-7.437824749214029e+19,11.7515895512,4.39453125e-09,8.696990671378293,39425702951048.67
0.01861182013259525,415002031738884.94,-7.43773077464034e+19,12.3657480197,4.39453125e-09,8.881449563935368,46726835383276.97
0.020474002145854774,499709017529064.44,-7.437627480766728e+19,13.0578260104,4.39453125e-09,9.086113933623333,54997001047926.77
0.022522402360440254,598873692086696.6,-7.437514159029813e+19,13.8375412919,4.39453125e-09,9.313191577386581,64303808969293.15
0.024775642596484283,714634096341752.0,-7.437390076073837e+19,14.7158955752,4.39453125e-09,9.565139980549153,74712351078496.55
0.027254206856132713,849443086456120.0,-7.43725447995005e+19,15.7053651401,4.39453125e-09,9.844697401403725,86284326660461.97
0.029980627541745988,1006119899889583.0,-7.437106607014892e+19,16.8201197562,4.39453125e-09,10.15491782819193,99077108934984.0
0.032979690295920586,1187909594759513.2,-7.436945689527602e+19,18.0762738016,4.39453125e-09,10.499210194134125,113142757673638.58
0.03627865932551265,1398551310428244.2,-7.436770963921812e+19,19.4921741162,4.39453125e-09,10.881382289089125,128526989795275.02
0.03990752525806392,1642356406340779.5,-7.436581679680935e+19,21.0887298579,4.39453125e-09,11.305689873666784,145268128233921.97
0.043899277783870316,1924297650742771.0,-7.436377108689578e+19,22.8897904555,4.39453125e-09,11.776891583199669,163396057197968.84
0.048290205562257354,2250110751781461.8,-7.436156554868082e+19,24.9225787084,4.39453125e-09,12.300310304529434,182931218487462.62
0.0531202261184831,2626409653305359.0,-7.435919363834177e+19,27.2181871558,4.39453125e-09,12.881901817643769,203883688176235.16
0.058433248730331414,3060817160842816.5,-7.435664932281813e+19,29.812147082,4.39453125e-09,13.528331616492327,226252375208735.16
0.06427757360336456,3562112625522273.0,-7.43539271673079e+19,32.7450809457,4.39453125e-09,14.247060958792481,250024382981525.62
0.07070633096370102,4140398601716206.5,-7.435102241287743e+19,36.0634506688,4.39453125e-09,15.046443343698709,275174571633911.2
0.07777796406007113,4807288614867363.0,-7.434793104073454e+19,39.8204161321,4.39453125e-09,15.935832779781235,301665352623846.8
0.08555676046607825,5576121295984849.0,-7.434464981913004e+19,44.0768835031,4.2724609375e-09,16.925714014201834,329446739517523.5
0.09411343651268608,6462190101061908.0,-7.434117633297782e+19,48.9024955043,4.2724609375e-09,18.02781423469953,358456661297498.3
0.1035257801639547,7483017177184874.0,-7.433750899742951e+19,54.3770092219,4.2724609375e-09,19.25528100031319,388621551514265.7
0.11387935818035018,8658650659531097.0,-7.43336470405222e+19,60.5918114497,4.2724609375e-09,20.622847305579754,419857187091153.9
0.1252682939983852,1.0012000835233178e+16,-7.432959047420315e+19,67.6516142538,4.2724609375e-09,22.14702624382855,452069759840696.6
0.13779612339822375,1.1569217456541362e+16,-7.43253400451815e+19,75.6764298128,4.2724609375e-09,23.846330178000635,485157144524255.2
0.15157673573804614,1.3360113276354142e+16,-7.432089717031779e+19,84.8038430679,4.2724609375e-09,25.741517554526563,519010320508660.5
0.16673540931185077,1.5418639549575806e+16,-7.431626385983232e+19,95.1916282978,4.2724609375e-09,27.855870884543602,553514898653954.94
0.18340995024303586,1.7783419990547596e+16,-7.431144263199234e+19,107.02076295,4.2724609375e-09,30.21550985079337,588552702845775.6
0.20175194526733947,2.049835050642853e+16,-7.430643642306883e+19,120.498900371,4.2724609375e-09,32.849743982573195,624003356534617.5
0.22192813979407344,2.3613272946955636e+16,-7.430124849621503e+19,135.86437265,4.2724609375e-09,35.79146988039896,659745828429565.1
0.2441219537734808,2.7184732132323692e+16,-7.429588235255711e+19,153.390805837,4.2724609375e-09,39.07761857314483,695659897530341.2
0.26853514915082893,3.1276826554824436e+16,-7.429034164723746e+19,173.392442489,4.2724609375e-09,42.74965926152984,731627505227164.8
0.29538966406591183,3.5962164410389024e+16,-7.428463011248718e+19,196.2302812,4.2724609375e-09,46.85416645269001,767533970467728.9
0.324929630472503,4.132293801961952e+16,-7.427875148910504e+19,222.319159699,4.2724609375e-09,51.44345833239908,803269052259543.4
0.35742359351975334,4.745213126307044e+16,-7.427270946705626e+19,252.135927644,4.2724609375e-09,56.5763151667501,838727851455374.8
0.3931669528717287,5.4454876403676424e+16,-7.42665076353448e+19,286.228877888,4.2724609375e-09,62.3187875872269,873811550448675.8
0.43248464815890164,6.244997862412216e+16,-7.426014944089152e+19,325.228631084,4.2724609375e-09,68.74510580648322,908427994858546.2
0.47573411297479185,7.157162879495406e+16,-7.42536381558681e+19,369.860698734,4.2724609375e-09,75.93870215219842,942492125444918.1
0.523308524272271,8.1971327439513e+16,-7.42469768527774e+19,420.959984677,4.2724609375e-09,83.99336080981072,975926271424282.0
0.5756403766994982,9.38200456063797e+16,-7.424016838648458e+19,479.487525403,4.2724609375e-09,93.01451035006362,1008660318194273.4
0.6332054143694481,1.073106514344988e+17,-7.423321538236021e+19,546.549816194,4.2724609375e-09,103.12067650473091,1040631763403682.4
0.696526955806393,1.2266063463972512e+17,-7.42261202296499e+19,623.421124013,4.2724609375e-09,114.44511476669742,1071785675515949.1
0.7661806513870324,1.4011516500794186e+17,-7.421888507914181e+19,711.569250333,4.2724609375e-09,127.13764475450554,1102074568696746.4
0.8427997165257357,1.5995052529789213e+17,-7.421151184416424e+19,812.685279001,4.2724609375e-09,141.36671092445317,1131458207182667.0
0.9270806881783094,1.8247796379088083e+17,-7.420400220396547e+19,928.717927308,4.2724609375e-09,157.3216971651389,1159903351406994.2
1.0197897569961403,2.080480171354774e+17,-7.41963576086242e+19,1061.91925784,4.150390625e-09,175.21552610270072,1187383457180228.8
1.1217697326957543,2.370553601911205e+17,-7.418857928482732e+19,1214.87577932,4.150390625e-09,195.28757761845046,1213878338202726.0
1.2339477059653299,2.699442463512324e+17,-7.418066824207988e+19,1390.57219945,4.150390625e-09,217.80696518292098,1239373801129476.8
1.357343476561863,3.072146094090512e+17,-7.417262527913001e+19,1592.45151691,4.150390625e-09,243.07621320074676,1263861261304639.2
1.4930788242180495,3.4942890651380134e+17,-7.416445099056652e+19,1824.48457482,4.150390625e-09,271.4353837083867,1287337346147936.2
1.6423877066398544,3.972197912579721e+17,-7.415614577369476e+19,2091.25159213,4.150390625e-09,303.26670655103845,1309803492033246.8
1.80662747730384,4.5129871655767123e+17,-7.414770983592215e+19,2398.03632963,4.150390625e-09,338.9997736879517,1331265539348384.2
1.987291225034224,5.124655788688238e+17,-7.41391432029748e+19,2750.93485116,4.150390625e-09,379.11736567299846,1351733329226714.2
2.186021347537647,5.816195285663324e+17,-7.413044572827327e+19,3156.98114867,4.150390625e-09,424.1619868014151,1371220304186843.8
2.404624482291412,6.597710861575434e+17,-7.412161710374142e+19,3624.29225824,4.150390625e-09,474.7431950909373,1389743113708378.5
2.6450879305205532,7.480557205716616e+17,-7.411265687223748e+19,4162.23591341,4.150390625e-09,531.5458243301174,1407321224871631.0
2.9095977235726087,8.477490642402776e+17,-7.410356444170854e+19,4781.62427063,4.150390625e-09,595.3392079339212,1423976537984664.8
3.2005584959298696,9.60283960250943e+17,-7.409433910102778e+19,5494.93780824,4.150390625e-09,666.9875281842636,1439733007999592.8
3.520615345522857,1.0872695597302086e+18,-7.408498003722163e+19,6316.58415163,4.150390625e-09,747.4614292960403,1454616274654064.8
3.872677880075143,1.2305127130532987e+18,-7.407548635338511e+19,7263.19731689,4.150390625e-09,837.8510482012117,1468653307404812.8
4.259946668082658,1.392041926816164e+18,-7.406585708607608e+19,8353.98369614,4.150390625e-09,939.3806325914024,1481872074556228.8
4.685942334890924,1.5741341901748232e+18,-7.405609122049022e+19,9611.12203355,4.150390625e-09,1053.4249315027744,1494301248337862.8
5.154537568380016,1.779345009709895e+18,-7.40461877014275e+19,11060.2256721,4.150390625e-09,1181.5275599992283,1505969957832432.8
5.669992325218018,2.0105420320784448e+18,-7.403614543811936e+19,12730.9751837,4.0283203125e-09,1325.421557388697,1516907598846928.5
6.236992557739821,2.2709426791244723e+18,-7.40259633014671e+19,14657.5208521,4.0283203125e-09,1487.052379523068,1527143704146330.0
6.860692813513804,2.5641562716198185e+18,-7.401564011309464e+19,16879.300809,4.0283203125e-09,1668.6035919736466,1536707869954241.2
7.546763094865185,2.894231176174555e+18,-7.400517462669563e+19,19441.9080138,4.0283203125e-09,1872.5255640040707,1545629726937209.0
8.301440404351705,3.2657075758137155e+18,-7.399456550324113e+19,22397.9991979,4.0283203125e-09,2101.5675045636967,1553938937827126.5
9.131585444786877,3.6836765389424993e+18,-7.398381128251616e+19,25808.3837087,4.0283203125e-09,2358.813231607506,1561665200780696.5
10.044744989265565,4.153846144556815e+18,-7.397291035401676e+19,29743.2775019,4.0283203125e-09,2647.7211248128165,1568838238147333.5
11.049220488192123,4.682615514253525e+18,-7.39618609303908e+19,34283.7473363,4.0283203125e-09,2972.1687784957558,1575487754306955.5
12.154143537011336,5.277157704560008e+18,-7.3950661026323e+19,39523.3743075,4.0283203125e-09,3336.5029450483057,1581643352778040.5
13.36955889071247,5.945512527159138e+18,-7.393930844508663e+19,45570.1706165,4.0283203125e-09,3745.595438096509,1587334410621937.0
14.706515779783718,6.696690490769828e+18,-7.392780077399017e+19,52548.7889441,4.0283203125e-09,4204.905747493829,1592589915900286.2
16.177168357762092,7.540789198114356e+18,-7.391613538878233e+19,60603.0700452,4.0283203125e-09,4720.551204475978,1597438280293254.2
17.794886193538304,8.489123686389792e+18,-7.390430946593586e+19,69898.981239,4.0283203125e-09,5299.385625267543,1601907142955125.5
19.574375812892136,9.554372372321204e+18,-7.389232000081489e+19,80628.0064449,4.0283203125e-09,5949.087457207116,1606023182722992.0
21.53181439418135,1.0750740456104264e+19,-7.388016382922804e+19,93011.0574294,4.0283203125e-09,6678.258556750058,1609811953931903.2
