t(s),inventory(He/m2),flux_surface_left(He/m2/s),max_ib(He),x_max_ib(m),mean_ib(He),total_bubbles
1e-05,107962150.51685475,-4.4069260049368985e+21,1.0861613178e+13,1.8837890625e-06,14.267403252565884,7567049.771123458
1.9090909090909094e-05,708039713.633555,-4.419597759547658e+21,5.45090615631e+12,1.8837890625e-06,16.179147123088743,43762486.875660725
2.9090909090909093e-05,3561817785.19458,-4.4230245980994845e+21,2.73942775852e+12,1.8837890625e-06,22.78799637155413,156302367.5763235
4.0090909090909096e-05,32831944872.644215,-4.4248196317250936e+21,1.38370924195e+12,1.8837890625e-06,80.05740087792532,410105056.0298311
5.21909090909091e-05,339539487822.85034,-4.4259822573178506e+21,704461888702.0,1.8837890625e-06,384.25449101325984,883631800.7045324
6.55009090909091e-05,2513935227165.581,-4.4268204675296075e+21,362765479347.0,1.8837890625e-06,1509.6110692283414,1665286694.3077025
8.014190909090911e-05,13113450656206.479,-4.42746531592411e+21,189688950538.0,1.8837890625e-06,4598.194307892096,2851869620.581116
9.624700909090911e-05,50976875749258.88,-4.4279834674480504e+21,101081473873.0,1.8837890625e-06,11206.283883975448,4548954522.038643
0.00011396261909090913,156063324141224.8,-4.4284129743724625e+21,55052695117.2,1.8837890625e-06,22707.39900775235,6872796135.213219
0.00013344979009090915,393850147194255.5,-4.4287773904535473e+21,30709948568.2,1.8837890625e-06,39569.61622100009,9953347664.393932
0.00015488567819090917,849817409703831.6,-4.4290922011731333e+21,17569745343.5,1.8837890625e-06,60971.034064167936,13938051449.307152
0.0001784651551009092,1614006081208305.8,-4.4293680737948334e+21,10317039687.5,1.8837890625e-06,84964.77718606472,18996178589.085064
0.0002044025797019092,2761543529747055.5,-4.429612634956288e+21,6219267567.73,1.8837890625e-06,109050.14960888638,25323610647.49993
0.00023293374676300923,4336923192166533.0,-4.429831505346773e+21,3847898845.27,1.8837890625e-06,130834.90324284477,33148059765.95328
0.00026431803053021923,6347196179373030.0,-4.4300289330491173e+21,2442084518.5,1.8837890625e-06,148525.22274611375,42734803301.54299
0.0002988407426741503,8764694490880189.0,-4.4302081975935104e+21,1588458927.16,1.8837890625e-06,161136.2560876598,54393062763.678116
0.00033681572603247445,1.1536338385149246e+16,-4.4303718767449714e+21,1057774401.14,1.8837890625e-06,168455.04475655043,68483187320.51895
0.000378588207726631,1.459530960161309e+16,-4.430522027799497e+21,720208561.136,1.8837890625e-06,170855.6167644534,85424815865.05063
0.00042453793759020323,1.7871590833689598e+16,-4.430660313814427e+21,500687628.82,1.8837890625e-06,169068.5275790518,105706195526.74187
0.00047508264044013266,2.1299499841150936e+16,-4.430788093325143e+21,354885714.949,1.8837890625e-06,163974.95756056142,129894833686.93248
0.0005306818135750551,2.4821887984218268e+16,-4.430906485241953e+21,256089153.552,1.8837890625e-06,156457.2428403771,158649657462.9171
0.0005918409040234697,2.8391623564442964e+16,-4.431016416499664e+21,187871437.898,1.8837890625e-06,147309.2372408876,192734848786.2681
0.0006591159035167259,3.1971301072485668e+16,-4.431118657253959e+21,139931621.452,1.8837890625e-06,137194.97821782998,233035505291.77206
0.0007331184029593077,3.553203999776848e+16,-4.4312138473340236e+21,105685970.095,1.8837890625e-06,126639.96209587339,280575257681.05316
0.0008145211523461475,3.905197341317458e+16,-4.4313025162657283e+21,80848708.6497,1.8837890625e-06,116041.02099729619,336535934254.5297
0.0009040641766716714,4.251477338125591e+16,-4.4313850991256226e+21,62580553.3502,1.8837890625e-06,105684.70870412618,402279325955.08997
0.0010025615034297477,4.59083620050814e+16,-4.4314619477677604e+21,48968845.0309,1.8837890625e-06,95767.92351057057,479370966000.053
0.0011109085628636316,4.92238551911299e+16,-4.4315333395715116e+21,38704626.3661,1.8837890625e-06,86417.41555957204,569605731349.3405
0.001230090328240904,5.2454731209065736e+16,-4.431599484375698e+21,30878661.88,1.8837890625e-06,77706.69477841926,675034903474.4106
0.0013611902701559035,5.5596194989319064e+16,-4.4316605300507175e+21,24850482.0337,1.8837890625e-06,69669.93201737467,797994104191.9517
0.001505400206262403,5.864470701247168e+16,-4.4317165668477483e+21,20162983.6928,1.8837890625e-06,62312.995045510674,941131251509.2584
0.0016640311359795525,6.159757171374995e+16,-4.4317676261794497e+21,16485942.9407,1.8837890625e-06,55621.96883655144,1107432422875.1807
0.001838525158668417,6.4452767576608376e+16,-4.4318136905091714e+21,13577997.2048,1.8837890625e-06,49569.68566335262,1300245638318.8037
0.002030468583626168,6.720867462801824e+16,-4.4318546837126717e+21,11260878.1537,1.8837890625e-06,44120.53997078178,1523296738265.8115
0.002241606351079694,6.986416339538649e+16,-4.4318904928998706e+21,9401519.78063,1.8837890625e-06,39234.080071823744,1780700943350.5227
0.002473857895278573,7.241857147740933e+16,-4.431920965159744e+21,7899670.03783,1.8837890625e-06,34867.54488495575,2076962163993.8193
0.0027293345938973397,7.487175466017206e+16,-4.4319459088390706e+21,6679130.33203,1.8837890625e-06,30977.684552166058,2416957746925.4976
0.003010358962377983,7.722424932676426e+16,-4.4319651042663145e+21,5681491.03651,1.8837890625e-06,27522.019113200848,2805907844520.168
0.003319485767706691,7.947710875748635e+16,-4.4319782619293056e+21,4861690.74831,1.8837890625e-06,24459.742759870263,3249302723161.9136
0.003659525253568269,8.163231949432562e+16,-4.4319850676762103e+21,4184664.96966,1.8837890625e-06,21752.281791186524,3752816383952.923
0.004033568688016006,8.369317527609013e+16,-4.4319851983273486e+21,3622928.09305,1.8837890625e-06,19363.6129653059,4322187983515.5015
0.004445016465908515,8.566461487509005e+16,-4.4319783447849374e+21,3154787.75353,1.8837890625e-06,17260.353410519627,4963085797703.321
0.004897609021590276,8.755351094772642e+16,-4.4319641904316e+21,2763029.46585,1.8837890625e-06,15411.839603280172,5680925392520.437
0.005395460832840214,8.936899413510762e+16,-4.431942417065871e+21,2433918.48353,1.8837890625e-06,13790.119233938458,6480654200230.858
0.005943097825215145,9.112315762398576e+16,-4.4319127800392004e+21,2156401.20347,1.8837890625e-06,12369.798966701066,7366583553159.201
0.006545498516827569,9.283112221534275e+16,-4.4318749711714086e+21,1921584.35735,1.8837890625e-06,11128.099130079301,8342046663155.599
0.007208139277601236,9.451163345584552e+16,-4.4318287776052806e+21,1722244.17754,1.8837890625e-06,10044.54294914219,9409251763308.64
0.00793704411445227,9.618756317549242e+16,-4.431774022679781e+21,1552492.56741,1.8837890625e-06,9100.871470918473,10569049731430.283
0.008738839434988406,9.788626062396699e+16,-4.431710539905931e+21,1407518.54306,1.8837890625e-06,8280.915308290072,11820705438923.217
0.009620814287578158,9.964011658852341e+16,-4.4316383104113663e+21,1283348.41291,1.8837890625e-06,7570.292593607347,13161990155131.314
0.010590986625426884,1.0148692569993798e+17,-4.431556999932405e+21,1176767.95426,1.8837890625e-06,6956.688325085156,14588396224966.094
0.011658176197060482,1.0347049691453829e+17,-4.431466824652001e+21,1085056.32393,1.8837890625e-06,6429.049265729454,16094214344583.7
0.01283208472585744,1.0564154220655635e+17,-4.4313679107272144e+21,1005941.70064,1.8837890625e-06,5977.737521240246,17672495962090.707
0.014123384107534095,1.080580685230788e+17,-4.4312603818658166e+21,937526.185697,1.8837890625e-06,5594.424129719434,19315315753240.543
0.015543813427378416,1.1078608485687294e+17,-4.4311444056066564e+21,878216.139827,1.8837890625e-06,5271.958696491648,21014217150562.695
0.01710628567920717,1.1390040952287131e+17,-4.4310202181741435e+21,826662.943131,1.8837890625e-06,5004.2340326578005,22760807903777.758
0.018825005156218797,1.1748857269451077e+17,-4.430886871636085e+21,781849.029455,1.8837890625e-06,4786.861126285497,24543969335011.69
0.020715596580931587,1.216469735889665e+17,-4.4307453178608977e+21,742811.070943,1.8837890625e-06,4615.684834961224,26355129940319.777
0.022795247148115656,1.2648608760107771e+17,-4.4305958018288656e+21,708723.844948,1.8837890625e-06,4487.3896881244,28187007679724.215
0.02508286277201813,1.3213524347620226e+17,-4.430437273140454e+21,678979.420033,1.8837890625e-06,4399.979908737194,30030874280543.12
0.027599239958310855,1.3874095258431774e+17,-4.4302699050938306e+21,653036.46422,1.8837890625e-06,4352.052334660383,31879431108712.652
0.030367254863232853,1.464719158016732e+17,-4.4300936135042306e+21,630432.589431,1.8837890625e-06,4342.948580719323,33726375774270.176
0.03341207125864705,1.555176224308967e+17,-4.429909096206659e+21,610720.767739,1.8837890625e-06,4372.312074424301,35568737954592.05
0.036761369293602665,1.6609673327936022e+17,-4.4297161865946585e+21,593525.054972,1.8837890625e-06,4440.51981952579,37404794940673.85
0.04044559713205384,1.784606307661026e+17,-4.4295146604030056e+21,578528.394574,1.8837890625e-06,4548.6472588754805,39233781080272.586
0.044498247754350136,1.928957249136575e+17,-4.4293046991441054e+21,565440.464568,1.8837890625e-06,4698.278076819621,41056685398288.164
0.048956163438876064,2.097502079428761e+17,-4.4290834730406673e+21,554134.940376,1.8837890625e-06,4892.784227311882,42869294495358.08
0.053859870691854585,2.2940522058853622e+17,-4.428852968340515e+21,544397.995361,1.8837890625e-06,5135.246478358033,44672679598796.45
0.05925394867013096,2.52303823886422e+17,-4.428612787142688e+21,536051.971168,1.8837890625e-06,5429.6054958236,46468168650649.055
0.06518743444623497,2.7895658797038323e+17,-4.4283625749699725e+21,528945.773254,1.8837890625e-06,5780.618073319432,48257225167307.52
0.07171426879994938,3.099606526778049e+17,-4.4281011155495236e+21,522980.218447,1.8837890625e-06,6194.317097121102,50039519743324.664
0.07889378658903523,3.4600761372429466e+17,-4.42782767854114e+21,518080.437187,1.8837890625e-06,6677.9009791971885,51813828147821.89
0.08679125615702968,3.8787957644903046e+17,-4.427543006315512e+21,514146.053407,1.8837890625e-06,7239.096151411246,53581216264604.27
0.09547847268182356,4.3647887974328346e+17,-4.427246743240822e+21,511089.538911,1.8837890625e-06,7886.8303255203855,55342750094536.09
0.10503441085909684,4.928537672017279e+17,-4.4269378203863136e+21,508852.292532,1.8837890625e-06,8631.700974698138,57098104840102.34
0.11554594285409744,5.5818683827532614e+17,-4.4266172013639626e+21,507350.127375,1.8837890625e-06,9485.022783583605,58849288084096.05
0.1271086280485981,6.338795787624835e+17,-4.426282223249938e+21,506559.629327,1.8837890625e-06,10461.068371850528,60594153123803.01
0.13982758176254884,7.21502660784983e+17,-4.4259343546223726e+21,506420.838536,1.8837890625e-06,11574.857099879855,62333612809135.42
0.15381843084789465,8.228756415608088e+17,-4.425572629168115e+21,506892.067622,1.8837890625e-06,12843.885246275315,64067501833173.11
0.16920836484177504,9.400746648311853e+17,-4.4251971381829556e+21,507929.162664,1.8837890625e-06,14287.66398595265,65796246731127.51
0.18613729223504347,1.0754834236608447e+18,-4.424807447127588e+21,509495.217901,1.8837890625e-06,15928.36763314609,67520002578470.164
0.20475911236763875,1.2318346844311588e+18,-4.4244031725897153e+21,511559.084075,1.8837890625e-06,17791.125833011774,69238714626224.836
0.22524311451349355,1.4122590833477576e+18,-4.423983975085467e+21,514094.343534,1.8837890625e-06,19904.38047849069,70952174817693.52
0.24777551687393382,1.6203409181459901e+18,-4.4235495463944826e+21,517078.652453,1.8837890625e-06,22300.297410581978,72660058667069.75
0.27256115947041815,1.8601816258508623e+18,-4.4230996034096417e+21,520493.25763,1.8837890625e-06,25015.233815961747,74361952382148.66
0.2998253663265509,2.1364719286683538e+18,-4.4226338835646094e+21,524322.616748,1.8837890625e-06,28090.267056141896,76057373338542.8
0.3298159938682969,2.4545737825596667e+18,-4.422152140744457e+21,528554.086832,1.8837890625e-06,31571.792178771968,77745785499312.16
0.36280568416421755,2.820613412403414e+18,-4.421654141495148e+21,533177.659644,1.8837890625e-06,35512.1963636851,79426611170909.81
0.3990943434897302,3.2415868805885875e+18,-4.421139661553968e+21,538185.729739,1.8837890625e-06,39970.61949133191,81099240438131.39
0.4390118687477942,3.725479818923171e+18,-4.420608482752574e+21,543572.885136,1.8837890625e-06,45013.81107175984,82763039392156.97
0.4829211465316645,4.2814031617721027e+18,-4.420060390332505e+21,549335.713478,1.8837890625e-06,50717.09504674186,84417357851948.7
0.531221352093922,4.91974695578307e+18,-4.4194951706989586e+21,555472.618851,1.8837890625e-06,57165.45552559485,86061536824111.16
0.5843515782124051,5.65235459255924e+18,-4.418912609627262e+21,561983.646254,1.8837890625e-06,64454.75833676247,87694915603079.05
0.6427948269427366,6.492720119082961e+18,-4.418312490922721e+21,568870.312182,1.8837890625e-06,72693.1253482702,89316838256390.38
0.7070824005461012,7.456211630341542e+18,-4.4176945955131454e+21,576135.440898,1.8837890625e-06,82002.48081130529,90926659249479.56
0.7777987315098023,8.560324143261798e+18,-4.4170587009237265e+21,583783.006769,1.8837890625e-06,92520.29151464844,92523748067811.36
0.8555866955698734,9.824965794847857e+18,-4.416404581052147e+21,591817.983427,1.8837890625e-06,104401.52532851006,94107492816149.94
0.9411534560359517,1.1272781705148697e+19,-4.4157320061367516e+21,600246.200733,1.8837890625e-06,117820.85580529478,95677302868836.45
1.0352768925486378,1.2929520403272878e+19,-4.415040742801134e+21,609074.210366,1.8837890625e-06,132975.14394164467,97232610697130.88
1.1388126727125925,1.4824448339538006e+19,-4.4143305540687616e+21,618309.160672,1.8837890625e-06,150086.23204743955,98772873016442.08
1.2527020308929426,1.6990818708138295e+19,-4.413601199269292e+21,627958.681039,1.8837890625e-06,169404.08897735912,100297571391025.4
1.3779803248913278,1.94664015933356e+19,-4.4128524337968206e+21,638030.77576,1.8837890625e-06,191210.35083179656,101806212418174.75
1.5157864482895516,2.2294083340542345e+19,-4.412084008719333e+21,648533.72704,1.8837890625e-06,215822.3067059868,103298327595550.25
1.6673731840275978,2.5522544055488385e+19,-4.4112956702695044e+21,659476.006603,1.8837890625e-06,243597.3852448327,104773472957587.02
1.8341185933394486,2.920702326471982e+19,-4.410487159264175e+21,681751.06557,3.662109375e-09,274938.20473553234,106231228551210.42
2.0175385435824844,3.3410185044921463e+19,-4.409658210503211e+21,788367.32489,3.662109375e-09,310298.25733562524,107671197807547.77
2.219300488849824,3.8203095364349256e+19,-4.4088085521911707e+21,911728.137501,3.662109375e-09,350188.30689311324,109093006854765.86
2.441238628643897,4.366632599632855e+19,-4.4079379054124807e+21,1054465.61022,3.662109375e-09,395183.5897825566,110496303807441.11
2.685370582417378,4.989120118407214e+19,-4.4070459836774335e+21,1219625.07484,3.662109375e-09,445931.9193875529,111880758059645.48
2.953915731568207,5.6981205282705785e+19,-4.406132492545409e+21,1410729.81925,3.662109375e-09,503162.80745550845,113246059602178.12
3.249315395634119,6.50535719063694e+19,-4.4051971293244194e+21,1631855.93477,3.662109375e-09,567697.7297070032,114591918378719.7
3.574255026106622,7.424107769725967e+19,-4.4042395828422464e+21,1887745.3705,3.5400390625e-09,640461.6789934243,115918063691086.05
3.931688619626376,8.46940667451396e+19,-4.4032595332828375e+21,2183846.5515,3.5400390625e-09,722496.1671819908,117224243659974.81
4.324865572498105,9.658273496014225e+19,-4.4022566520815223e+21,2526464.64279,3.5400390625e-09,814973.8570520481,118510224744514.75
4.757360220657007,1.1009970738357374e+20,-4.401230601872942e+21,2922902.29931,3.5400390625e-09,919215.0280863453,119775791321409.58
5.233104333631799,1.2546294556109514e+20,-4.400181036486031e+21,3381606.4995,3.5400390625e-09,1036706.1054432357,121020745322469.6
5.75642285790407,1.4291902675660744e+20,-4.399107600980888e+21,3912347.46504,3.5400390625e-09,1169120.5099467998,122244905927713.89
6.332073234603569,1.6274684201664928e+20,-4.3980099317226605e+21,4526425.49379,3.5400390625e-09,1318342.1190189873,123448109310012.38
6.965288648973017,1.8526176597510885e+20,-4.3968876564877615e+21,5236910.05151,3.5400390625e-09,1486491.664536212,124630208426302.1
7.66182560477941,2.1082035789623666e+20,-4.395740394598063e+21,6058916.14222,3.5400390625e-09,1675956.4341101064,125791072849800.73
8.428016256166442,2.3982566087964466e+20,-4.394567757078834e+21,7009923.75672,3.5400390625e-09,1889423.6878168597,126930588637190.17
9.270825972692178,2.727331744943987e+20,-4.393369346836416e+21,8110147.09878,3.5400390625e-09,2129918.2535438123,128048658224614.17
10.197916660870487,3.10057585482892e+20,-4.3921447588518864e+21,9382961.32785,3.5400390625e-09,2400844.8215780533,129145200346223.95
11.217716417866628,3.523803517050143e+20,-4.3908935803871743e+21,10855395.757,3.5400390625e-09,2706035.523599012,130220149969188.28
12.339496150562383,4.003582463204119e+20,-4.389615391200345e+21,12558927.2426,3.41796875e-09,3049803.4537238916,131273458239272.36
13.573453856527713,4.547329824901253e+20,-4.388309763767061e+21,14529670.9409,3.41796875e-09,3437002.8706625677,132305092431437.0
