t(s),inventory(He/m2),flux_surface_left(He/m2/s),max_ib(He),x_max_ib(m),mean_ib(He),total_bubbles
1e-06,8.025851281368482e-23,-4.365463790024886e+17,7.0,9.65e-05,6.9999999999999964,1.1465501830526409e-23
2.1000000000000002e-06,7.796848259167738e-22,-4.434689795600924e+17,7.0,9.65e-05,6.999999999999977,1.1138354655953948e-22
3.3100000000000005e-06,8.525265523625665e-21,-4.4530741374841715e+17,7.0,9.65e-05,7.000000000000011,1.2178950748036646e-21
4.641000000000001e-06,5.859324521815367e-20,-4.462469044722131e+17,7.0,9.65e-05,7.000000000000006,8.370463602593375e-21
6.105100000000001e-06,2.9147172879309655e-19,-4.4684609663511066e+17,7.0,9.65e-05,6.9999999999999885,4.163881839901386e-20
7.715610000000002e-06,1.1713811569021547e-18,-4.472735984437237e+17,7.0,9.65e-05,6.999999999999993,1.6734016527173656e-19
9.487171000000002e-06,4.057737827684673e-18,-4.47600016696657e+17,7.0,9.65e-05,6.9999999999999885,5.796768325263828e-19
1.1435888100000002e-05,1.2608448181154158e-17,-4.4786082614659085e+17,7.0,9.65e-05,6.99999999999999,1.801206883022025e-18
1.3579476910000003e-05,3.606957050485556e-17,-4.480760768950939e+17,7.0,9.65e-05,6.99999999999999,5.152795786407945e-18
1.5937424601000003e-05,9.671682009252778e-17,-4.4825808015058234e+17,7.0,9.65e-05,6.999999999999987,1.3816688584646852e-17
1.8531167061100006e-05,2.462199857473916e-16,-4.484148763432045e+17,7.0,8.59375e-08,6.999999999999999,3.5174283678198804e-17
2.1384283767210007e-05,6.008152195586371e-16,-4.4855197388262995e+17,7.0,8.59375e-08,6.999999999999985,8.583074565123406e-17
2.452271214393101e-05,1.4154882348718446e-15,-4.486732935119282e+17,7.0,7.51953125e-08,7.000000000000011,2.0221260498169178e-16
2.7974983358324114e-05,3.2379874275632777e-15,-4.487817145762248e+17,7.0,7.51953125e-08,7.000000000000048,4.625696325090365e-16
3.177248169415653e-05,7.224334281834599e-15,-4.4887940756020346e+17,7.0,7.51953125e-08,7.000000000000091,1.0320477545477866e-15
3.5949729863572185e-05,1.5777852161526094e-14,-4.489680452446924e+17,7.0,7.51953125e-08,7.00000000000019,2.2539788802179522e-15
4.0544702849929404e-05,3.3830810525241355e-14,-4.490489416350514e+17,7.0,8.203125e-08,7.000000000000501,4.832972932176991e-15
4.559917313492235e-05,7.139315353133564e-14,-4.49123146180163e+17,7.0,8.59375e-08,7.000000000001154,1.0199021933046268e-14
5.115909044841459e-05,1.4858360181650614e-13,-4.491915093644779e+17,7.0,8.88671875e-08,7.000000000002494,2.1226228830921885e-14
5.727499949325605e-05,3.054966592337681e-13,-4.492547294252578e+17,7.00000000001,9.47265625e-08,7.000000000005366,4.364237989050484e-14
6.400249944258165e-05,6.214437026639714e-13,-4.493133863013843e+17,7.00000000002,9.86328125e-08,7.000000000011467,8.877767180899333e-14
7.140274938683982e-05,1.2522853732387877e-12,-4.493679667464732e+17,7.00000000004,1.044921875e-07,7.000000000024313,1.788979104620626e-13
7.954302432552381e-05,2.5025428832481143e-12,-4.4941888320307437e+17,7.00000000008,1.103515625e-07,7.000000000051075,3.5750612617569355e-13
8.84973267580762e-05,4.964136903604622e-12,-4.4946648819119674e+17,7.00000000016,1.162109375e-07,7.000000000106435,7.091624147898775e-13
9.834705943388383e-05,9.782373065203317e-12,-4.4951108541887315e+17,7.00000000034,1.23046875e-07,7.000000000220455,1.397481866413605e-12
0.00010918176537727222,1.916427272092497e-11,-4.495529384620951e+17,7.00000000069,1.298828125e-07,7.00000000045385,2.7377532456689203e-12
0.00012109994191499945,3.734731222773663e-11,-4.4959227761873645e+17,7.00000000142,1.3671875e-07,7.000000000929188,5.335330317539872e-12
0.0001342099361064994,7.244089660881558e-11,-4.496293053746492e+17,7.0000000029,1.435546875e-07,7.000000001893201,1.0348699512746201e-11
0.00014863092971714937,1.3991883350023578e-10,-4.496642008038312e+17,7.00000000587,1.513671875e-07,7.000000003840523,1.998840477478141e-11
0.00016449402268886432,2.692294310447742e-10,-4.4969712314172794e+17,7.00000001187,1.591796875e-07,7.000000007760341,3.8461347249471577e-11
0.00018194342495775077,5.162830228396908e-10,-4.4972821471054394e+17,7.00000002389,1.669921875e-07,7.000000015625117,7.375471738389495e-11
0.00020113776745352586,9.870033000546963e-10,-4.4975760333106566e+17,7.00000004795,1.7578125e-07,7.0000000313590895,1.4100047080472142e-10
0.00022225154419887848,1.8816772951307104e-09,-4.497854043226336e+17,7.00000009594,1.845703125e-07,7.000000062751155,2.6881103975178673e-10
0.00024547669861876636,3.5783563299227227e-09,-4.4981172216886534e+17,7.00000019144,1.93359375e-07,7.000000125222929,5.11193752272792e-10
0.000271024368480643,6.78949576255967e-09,-4.498366519095063e+17,7.00000038098,2.03125e-07,7.0000002492307205,9.699279315462618e-10
0.00029912680532870735,1.2855810837515427e-08,-4.498602803067317e+17,7.00000075609,2.138671875e-07,7.000000494732385,1.8365442755596426e-09
0.0003300394858615781,2.429697105318744e-08,-4.4988268682578355e+17,7.00000149601,2.24609375e-07,7.000000979257271,3.4709953791699964e-09
0.0003640434344477359,4.584262365269386e-08,-4.499039444635333e+17,7.00000294905,2.353515625e-07,7.0000019317003845,6.54894442887077e-09
0.00040144777789250956,8.636099065196038e-08,-4.499241204534166e+17,7.00000578396,2.470703125e-07,7.000003793216231,1.233727769342834e-08
0.00044259255568176054,1.6246348443840633e-07,-4.499432768704344e+17,7.00001125849,2.587890625e-07,7.00000739921047,2.3209044672828568e-08
0.00048785181124993667,3.0523675400241264e-07,-4.4996147115540934e+17,7.00002165462,2.705078125e-07,7.000014284303669,4.3605161590434706e-08
0.0005376369923749304,5.728067157533702e-07,-4.499787565734604e+17,7.00004085878,2.822265625e-07,7.000027121751753,8.18292137716783e-08
0.0005924006916124235,1.0737713814412e-06,-4.499951826179404e+17,7.00007478379,2.919921875e-07,7.000050152365887,1.5339481261834748e-07
0.0006526407607736659,2.0108776021589148e-06,-4.500107953680876e+17,7.00013072583,3.0078125e-07,7.000089061209365,2.8726457400407805e-07
0.0007189048368510325,3.76238200861944e-06,-4.5002563780641914e+17,7.00021439454,3.037109375e-07,7.00014931588533,5.374716793656851e-07
0.0007917953205361358,7.033521049523652e-06,-4.500397501004461e+17,7.00032520425,2.98828125e-07,7.00023264204432,1.0047553287414188e-06
0.0008719748525897494,1.3138341725909082e-05,-4.500531698524253e+17,7.00045466792,2.83203125e-07,7.000334124545044,1.876816376498736e-06
0.0009601723378487245,2.4523800272591222e-05,-4.50065932320427e+17,7.00059174281,2.55859375e-07,7.000443952706233,3.503177861042771e-06
0.001057189571633597,4.574388174509489e-05,-4.500780706137877e+17,7.0007296598,2.20703125e-07,7.0005531006657264,6.534323943738791e-06
0.001163908528796957,8.526921996781419e-05,-4.5008961586589606e+17,7.00086714533,1.8359375e-07,7.000657354693226,1.2180173324816402e-05
0.0012812993816766526,0.00015884705909539076,-4.5010059738713485e+17,7.00100585179,1.494140625e-07,7.000757115678574,2.268998287908663e-05
0.001410429319844318,0.0002957364391500484,-4.5011104280063085e+17,7.00114824597,1.201171875e-07,7.000855168926913,4.2242902047547816e-05
0.00155247225182875,0.000550272731344568,-4.501209781632314e+17,7.00129679416,9.5703125e-08,7.000954829334309,7.859966886786657e-05
0.0017087194770116251,0.0010233046322438216,-4.501304280738632e+17,7.0014537968,7.51953125e-08,7.00105907883016,0.00014616426182405683
0.0018805914247127878,0.0019019084802537943,-4.501394157711304e+17,7.00162142357,5.95703125e-08,7.001170369788215,0.0002716557917888987
0.0020696505671840668,0.0035329185095305175,-4.5014796322173677e+17,7.00180177311,4.6875e-08,7.001290710722497,0.0005046096006440416
0.0022776156239024737,0.006558979433294486,-4.5015609120103904e+17,7.00199694282,3.7109375e-08,7.001421821173805,0.0009368067802255139
0.0025063771862927214,0.012170113011813019,-4.501638193668177e+17,7.00220907716,2.9296875e-08,7.0015652716522965,0.0017381988940511582
0.0027580149049219937,0.022568539019908147,-4.501711663271484e+17,7.00244041371,2.24609375e-08,7.001722588766524,0.0032232838039194566
0.0030348163954141932,0.04182686609790734,-4.5017814970310394e+17,7.00269329711,1.7578125e-08,7.0018953291361115,0.0059736491523742765
0.0033392980349556127,0.07747124699959128,-4.50184786186887e+17,7.00297024183,1.3671875e-08,7.002085130986739,0.011064025293944688
0.0036742278384511743,0.1433993283687974,-4.501910915959038e+17,7.00327395531,1.07421875e-08,7.002293751506611,0.02047890783472825
0.004042650622296292,0.2652532524448137,-4.501970809232037e+17,7.00360735655,8.7890625e-09,7.00252309587022,0.0378796683442927
0.004447915684525921,0.4903030914929163,-4.502027683846609e+17,7.00397363885,6.7138671875e-09,7.002775241869415,0.07001554020489
0.004893707252978514,0.9056067649849471,-4.5020816746323264e+17,7.0043762652,5.4931640625e-09,7.003052462665038,0.12931600467267026
0.005384077978276365,1.6713369006524466,-4.502132909505849e+17,7.00481885525,5.2490234375e-09,7.003357249237237,0.23864795714005285
0.005923485776104002,3.081861660131984,-4.502181509863584e+17,7.00530559646,5.126953125e-09,7.003692333535581,0.4400338440589678
0.006516834353714403,5.677533017140322,-4.502227590953216e+17,7.00584119748,5.0048828125e-09,7.004060712989085,0.8106059113124611
0.007169517789085845,10.448961515551495,-4.502271262226342e+17,7.0064308262,5.0048828125e-09,7.004465676841491,1.4917571157637857
0.00788746956799443,19.20966644213057,-4.5023126276743315e+17,7.00708012621,5.0048828125e-09,7.004910834673868,2.742314198639607
0.008677216524793875,35.27464142457014,-4.5023517861492986e+17,7.00779531077,5.0048828125e-09,7.005400147425276,5.035349970341777
0.009545938177273262,64.69350524320653,-4.5023888316719974e+17,7.00858322728,5.0048828125e-09,7.005937961205319,9.234096219726801
0.01050153199500059,118.48663803234753,-4.5024238537281235e+17,7.00945143668,5.0048828125e-09,7.006529044194891,16.910889441115938
0.01155268519450065,216.69052506507424,-4.502456937554536e+17,7.01040829908,5.0048828125e-09,7.007178626946876,30.924076094159634
0.012708953713950717,395.65734517619455,-4.5024881644165446e+17,7.01146306765,5.0048828125e-09,7.007892446425937,56.45882099374712
0.01398084908534579,721.189985907016,-4.502517611877369e+17,7.01262599362,5.126953125e-09,7.008676794160555,102.89959247484383
0.015379933993880369,1312.105994354128,-4.502545354060441e+17,7.01390844528,5.126953125e-09,7.009538568925732,187.18864037226044
0.016918927393268408,2382.3722155693576,-4.502571461905246e+17,7.01532302493,5.126953125e-09,7.010485334426287,339.8298551271875
0.01861182013259525,4316.17789108513,-4.502596003416862e+17,7.01688372886,5.126953125e-09,7.011525382515428,615.5832940216319
0.020474002145854774,7801.181008074494,-4.5026190439092314e+17,7.01860610717,5.126953125e-09,7.012667802558378,1112.4412602616721
0.022522402360440254,14064.021760596992,-4.502640646241796e+17,7.0205074491,5.126953125e-09,7.013922557642031,2005.15783358251
0.024775642596484283,25284.723281695366,-4.502660871048775e+17,7.02260699224,5.126953125e-09,7.015300568437022,3604.225226707384
0.027254206856132713,45322.32275784062,-4.502679776960003e+17,7.0249261591,5.126953125e-09,7.016813805646564,6459.1029508819065
0.029980627541745988,80978.84922753889,-4.502697420811964e+17,7.02748882467,5.126953125e-09,7.018475392123552,11537.954427882869
0.032979690295920586,144188.69846742073,-4.5027138578473946e+17,7.03032161968,5.126953125e-09,7.020299715910521,20538.823740051634
0.03627865932551265,255788.08755117023,-4.5027291419019994e+17,7.03345427428,5.126953125e-09,7.022302555657301,36425.10209775887
0.03990752525806392,451963.0841453723,-4.50274332557781e+17,7.0369200083,5.126953125e-09,7.024501220098858,64340.95033711329
0.043899277783870316,795203.5436572328,-4.5027564604050496e+17,7.04075597447,5.126953125e-09,7.026914703534759,113165.39010459604
0.048290205562257354,1392774.7541573027,-4.502768596999455e+17,7.04500376244,5.126953125e-09,7.029563859539402,198131.03372939007
0.0531202261184831,2427622.0661016596,-4.502779785230174e+17,7.04970997236,5.126953125e-09,7.0324715954490244,345201.83027438953
0.058433248730331414,4209646.234254718,-4.5027900744244006e+17,7.05492686819,5.126953125e-09,7.035663090515277,598329.7068231863
0.06427757360336456,7260025.151833881,-4.502799513645763e+17,7.06071312244,5.126953125e-09,7.039166040980908,1031375.749565668
0.07070633096370102,12448583.408462584,-4.5028081520869664e+17,7.06713466578,5.126953125e-09,7.043010935718503,1767508.7433600049
0.07777796406007113,21215372.700458407,-4.5028160396031955e+17,7.07426565718,5.126953125e-09,7.047231366471329,3010454.971209681
0.08555676046607825,35924366.42164914,-4.502823227371126e+17,7.08218959238,5.126953125e-09,7.051864377141929,5094307.618577463
0.09411343651268608,60421859.00131428,-4.5028297685860454e+17,7.0910005715,5.126953125e-09,7.056950856986913,8562034.82577636
0.1035257801639547,100907913.56012198,-4.502835719017105e+17,7.10080474942,5.126953125e-09,7.062535982991278,14287773.372502279
0.11387935818035018,167279979.38268682,-4.502841137157271e+17,7.11172199649,5.126953125e-09,7.068669717115903,23664987.3423339
0.1252682939983852,275178410.1539229,-4.502846083671418e+17,7.12388780084,5.126953125e-09,7.075407364544442,38892235.59520669
0.13779612339822375,449059566.8968248,-4.5028506199045626e+17,7.13745544823,5.126953125e-09,7.082810199510938,63401327.19183015
0.15157673573804614,726749327.779793,-4.5028548053816314e+17,7.15259852024,5.126953125e-09,7.090946165794352,102489753.94645096
0.16673540931185077,1166093616.8678236,-4.502858694491617e+17,7.1695137571,5.126953125e-09,7.09989065956265,164241066.90956482
0.18340995024303586,1854526972.044084,-4.502862332839482e+17,7.18842433716,5.126953125e-09,7.109727403015128,260843611.4242027
0.20175194526733947,2922626061.768782,-4.5028657539744864e+17,7.2095836309,5.126953125e-09,7.12054941834112,410449515.9096401
0.22192813979407344,4562998116.500383,-4.502868977269591e+17,7.23327949389,5.126953125e-09,7.132460113069606,639750947.6623768
0.2441219537734808,7056162552.269946,-4.5028720075763526e+17,7.25983916868,5.126953125e-09,7.145574490139967,987487088.9676683
0.26853514915082893,10805395666.797672,-4.502874836926194e+17,7.28963487179,5.126953125e-09,7.160020499082964,1509129152.3790467
0.29538966406591183,16382789247.741625,-4.502877448080718e+17,7.32309014675,5.126953125e-09,7.175940548384883,2283016301.1075897
0.324929630472503,24588977902.4308,-4.5028798192901875e+17,7.36068706821,5.126953125e-09,7.193493202718462,3418224944.3342056
0.35742359351975334,36529060498.605,-4.502881929340392e+17,7.40297438421,5.126953125e-09,7.212855091023548,5064438428.004147
0.3931669528717287,53707118462.97988,-4.502883761937912e+17,7.45057668354,5.126953125e-09,7.2342230508728145,7424034078.752946
0.43248464815890164,78141366386.96095,-4.502885308699603e+17,7.50420467157,5.126953125e-09,7.257816530053724,10766511672.399982
0.47573411297479185,112501331825.93988,-4.5028865703886944e+17,7.56466663096,5.126953125e-09,7.2838802579704645,15445247291.487814
0.523308524272271,160267567456.39062,-4.5028875564518086e+17,7.63288113351,5.126953125e-09,7.31268718926934,21916371274.784973
0.5756403766994982,225913322639.29276,-4.502888283240941e+17,7.70989105728,5.126953125e-09,7.344541713533519,30759349112.690113
0.6332054143694481,315106476381.9565,-4.5028887714838554e+17,7.79687895248,5.126953125e-09,7.37978312195641,42698609318.80888
0.696526955806393,434929044224.4527,-4.502889043583512e+17,7.89518379447,5.126953125e-09,7.418789327425168,58625339665.14494
0.7661806513870324,594110930535.491,-4.502889121217372e+17,8.0063191699,5.126953125e-09,7.4619808490018595,79618393903.40453
0.8427997165257357,803274514438.5338,-4.502889023526533e+17,8.13199296976,5.126953125e-09,7.509825093554413,106963145536.90126
0.9270806881783094,1075187302389.1187,-4.502888765990762e+17,8.27412871997,5.126953125e-09,7.562840993120544,142167117273.4097
1.0197897569961403,1425021348873.275,-4.502888359922237e+17,8.43488877539,5.126953125e-09,7.621604083760767,186971316433.1831
1.1217697326957543,1870620426473.1458,-4.502887812405699e+17,8.61669974218,5.126953125e-09,7.686752139361311,243356412768.1857
1.2339477059653299,2432778871085.126,-4.5028871264742355e+17,8.82228068044,5.126953125e-09,7.75899150380159,313543180179.17194
1.357343476561863,3135539347225.4604,-4.5028863013321126e+17,9.054674868,5.126953125e-09,7.839104300680618,399986940721.43195
1.4930788242180495,4006520061978.5967,-4.5028853325018534e+17,9.31728616503,5.126953125e-09,7.92795674497911,505366034510.214
1.6423877066398544,5077284746035.0205,-4.502884211858206e+17,9.61392128483,5.126953125e-09,8.02650883664786,632564524548.0681
1.80662747730384,6383770633337.358,-4.502882927590712e+17,9.94883951881,5.126953125e-09,8.135825778176496,784649377628.1637
1.987291225034224,7944755113932.504,-4.502881471477872e+17,10.2742271682,5.126953125e-09,8.235391337277589,964708875214.0391
2.186021347537647,9821518255523.814,-4.50287981766345e+17,10.6497538203,5.126953125e-09,8.350101903334044,1176215376677.2905
2.404624482291412,12064824921271.902,-4.5028779430835494e+17,11.0802931345,5.126953125e-09,8.48084383140762,1422597227482.4243
2.6450879305205532,14732097342599.533,-4.502875823644281e+17,11.5716074719,5.126953125e-09,8.628785946320784,1707319828565.3535
2.9095977235726087,17888318641293.434,-4.5028734330198336e+17,12.1304193425,5.126953125e-09,8.795378628995834,2033831560397.0464
3.2005584959298696,21607097772819.457,-4.50287074366774e+17,12.7645082463,5.126953125e-09,8.982362703984423,2405502704008.4805
3.520615345522857,25971927138120.72,-4.50286772786879e+17,13.4828322691,5.126953125e-09,9.191786659656014,2825558087865.0063
3.872677880075143,31077675130358.758,-4.5028643586299155e+17,14.2956742989,5.126953125e-09,9.426030862703302,3297005450441.094
4.259946668082658,37032367345259.32,-4.5028606103821574e+17,15.214813329,5.126953125e-09,9.687837596773411,3822562772686.5654
4.685942334890924,43959320350419.41,-4.502856459436502e+17,16.2537221093,5.126953125e-09,9.980345979185646,4404588823082.694
5.154537568380016,51999698762844.87,-4.502851884191674e+17,17.4277934584,5.126953125e-09,10.307131122845364,5045021562555.803
5.669992325218018,61315568414710.64,-4.502846865119453e+17,18.7545988638,5.126953125e-09,10.672247325796715,5745328658800.8545
6.236992557739821,72093515208440.7,-4.5028413845799443e+17,20.2541845242,5.126953125e-09,11.080275574195523,6506473122052.743
6.860692813513804,84548891921459.34,-4.5028354265364826e+17,21.9494116363,5.126953125e-09,11.53637619583127,7328895182181.345
7.546763094865185,98930746103640.94,-4.502828976245627e+17,23.8663493679,5.126953125e-09,12.04634804090577,8212509365303.237
8.301440404351705,115527474526825.97,-4.5028220199912685e+17,26.0347304684,5.126953125e-09,12.616696024834832,9156713794120.15
9.131585444786877,134673246613487.75,-4.5028145449151334e+17,28.4884807523,5.126953125e-09,13.25470917872127,10160407504805.033
10.044744989265565,156755243223062.66,-4.5028065389724474e+17,31.2663347415,5.126953125e-09,13.96855147298324,11222011353592.75
11.049220488192123,182221768884578.8,-4.50279799101544e+17,34.4125506485,5.126953125e-09,14.76736760347167,12339488917560.377
12.154143537011336,211591314062754.6,-4.502788890984291e+17,37.9777388052,5.126953125e-09,15.661405700843485,13510365423415.27
13.36955889071247,245462667014882.6,-4.502779230168233e+17,42.0198188321,5.126953125e-09,16.662158630222073,14731744695411.717
14.706515779783718,284526199429084.0,-4.502769001491563e+17,46.6051225396,5.126953125e-09,17.782525299330995,16000325861467.396
16.177168357762092,329576474011015.8,-4.502758199780096e+17,51.8096619563,5.126953125e-09,19.036993291414095,17312422658658.95
17.794886193538304,381526344397862.7,-4.502746821971261e+17,57.7205850869,5.126953125e-09,20.44184424945694,18663988422081.75
19.574375812892136,441422738546964.2,-4.502734867242939e+17,64.4378460429,5.126953125e-09,22.015383773322995,20050649268347.32
21.53181439418135,510464337521430.94,-4.502722337049164e+17,72.0761210198,5.126953125e-09,23.778198115693343,21467746842622.62
