t(s),inventory(He/m2),flux_surface_left(He/m2/s),max_ib(He),x_max_ib(m),mean_ib(He),total_bubbles
1e-06,2.209106122711446e-25,-1.9333799772235584e+17,7.0,9.65e-05,7.000000000000001,3.1558658895877794e-26
2.1000000000000002e-06,5.34844216145418e-24,-1.961245838565675e+17,7.0,9.65e-05,6.9999999999999805,7.640631659220279e-25
3.3100000000000005e-06,4.797165674037256e-23,-1.9686210333897782e+17,7.0,9.65e-05,7.000000000000023,6.8530938200532e-24
4.641000000000001e-06,2.3722866445527387e-22,-1.9723896374433344e+17,7.0,9.65e-05,7.000000000000006,3.3889809207896236e-23
6.105100000000001e-06,1.0162306974676353e-21,-1.9747931616411747e+17,7.0,9.65e-05,6.999999999999997,1.4517581392394795e-22
7.715610000000002e-06,3.7843645793853515e-21,-1.976507987728989e+17,7.0,9.65e-05,6.999999999999999,5.406235113407646e-22
9.487171000000002e-06,1.256029355515614e-20,-1.9778173457560435e+17,7.0,9.65e-05,7.000000000000013,1.794327650736588e-21
1.1435888100000002e-05,3.803145623709873e-20,-1.978863535267089e+17,7.0,9.65e-05,6.999999999999995,5.433065176728394e-21
1.3579476910000003e-05,1.0701195159271224e-19,-1.9797269821952054e+17,7.0,9.65e-05,6.999999999999994,1.5287421656101762e-20
1.5937424601000003e-05,2.8378471476781424e-19,-1.9804570695516192e+17,7.0,9.65e-05,6.999999999999984,4.054067353825927e-20
1.8531167061100006e-05,7.16956520468957e-19,-1.9810860491896243e+17,7.0,9.65e-05,6.9999999999999964,1.0242236006699392e-19
2.1384283767210007e-05,1.7400487540573112e-18,-1.9816360164616493e+17,7.0,9.65e-05,6.999999999999999,2.4857839343675877e-19
2.452271214393101e-05,4.083488340427131e-18,-1.9821226982643805e+17,7.0,9.65e-05,7.000000000000002,5.833554772038757e-19
2.7974983358324114e-05,9.31448317218774e-18,-1.982557644249857e+17,7.0,9.65e-05,7.000000000000007,1.3306404531696758e-18
3.177248169415653e-05,2.0737807887953528e-17,-1.9829495607054384e+17,7.0,9.65e-05,6.999999999999975,2.9625439839933716e-18
3.5949729863572185e-05,4.521977999394394e-17,-1.9833051575459254e+17,7.0,9.65e-05,7.000000000000003,6.459968570563418e-18
4.0544702849929404e-05,9.684587450824099e-17,-1.9836297055822013e+17,7.0,9.65e-05,7.0,1.3835124929748713e-17
4.559917313492235e-05,2.0419377650629902e-16,-1.9839274144509232e+17,7.0,1.30859375e-07,6.999999999999983,2.917053950089993e-17
5.115909044841459e-05,4.2468969005231056e-16,-1.984201695715342e+17,7.0,1.30859375e-07,7.0000000000000275,6.066995572175842e-17
5.727499949325605e-05,8.727643128284425e-16,-1.9844553502547907e+17,7.0,1.2890625e-07,7.000000000000055,1.2468061611834794e-16
6.400249944258165e-05,1.7747608298325715e-15,-1.984690704436152e+17,7.0,1.2890625e-07,7.000000000000006,2.5353726140465285e-16
7.140274938683982e-05,3.575477999700337e-15,-1.9849097108420195e+17,7.0,1.2890625e-07,7.000000000000054,5.107825713857584e-16
7.954302432552381e-05,7.143990074423285e-15,-1.985114023972081e+17,7.0,1.2890625e-07,7.000000000000023,1.0205700106318945e-15
8.84973267580762e-05,1.416968458964632e-14,-1.9853050579521706e+17,7.0,1.2890625e-07,7.000000000000133,2.0242406556637213e-15
9.834705943388383e-05,2.7921643500519856e-14,-1.9854840310987315e+17,7.0,1.2890625e-07,7.000000000000217,3.988806214359856e-15
0.00010918176537727222,5.470015394023202e-14,-1.985652000741787e+17,7.0,1.435546875e-07,7.000000000000487,7.814307705746887e-15
0.00012109994191499945,1.0660340318563329e-13,-1.9858098907349507e+17,7.0,1.572265625e-07,7.000000000001037,1.5229057597945356e-14
0.0001342099361064994,2.06787760282489e-13,-1.9859585134099488e+17,7.0,1.611328125e-07,7.000000000002115,2.9541108611775215e-14
0.00014863092971714937,3.994464947699502e-13,-1.9860985872616202e+17,7.00000000001,1.69921875e-07,7.000000000004341,5.706378496710035e-14
0.00016449402268886432,7.68700877302048e-13,-1.9862307513124685e+17,7.00000000001,1.787109375e-07,7.000000000008743,1.0981441104301255e-13
0.00018194342495775077,1.474298189060517e-12,-1.986355576862737e+17,7.00000000003,1.85546875e-07,7.000000000017566,2.1061402700811677e-13
0.00020113776745352586,2.8189578924465913e-12,-1.9864735771567504e+17,7.00000000005,1.953125e-07,7.000000000035281,4.0270827034748334e-13
0.00022225154419887848,5.375234176051989e-12,-1.9865852153712624e+17,7.00000000011,2.060546875e-07,7.000000000070699,7.678905965711e-13
0.00024547669861876636,1.0224169280781737e-11,-1.9866909112432886e+17,7.00000000022,2.158203125e-07,7.000000000141081,1.4605956115108107e-12
0.000271024368480643,1.940369848209004e-11,-1.98679104659231e+17,7.00000000043,2.275390625e-07,7.000000000281037,2.7719569259015736e-12
0.00029912680532870735,3.675022273202572e-11,-1.9868859699456547e+17,7.00000000085,2.392578125e-07,7.000000000558673,5.2500318184418094e-12
0.0003300394858615781,6.947649275997663e-11,-1.9869760004393245e+17,7.0000000017,2.509765625e-07,7.0000000011084875,9.925213249853522e-12
0.0003640434344477359,1.318333326777884e-10,-1.9870614308558237e+17,7.00000000337,2.63671875e-07,7.00000000220097,1.8833333233762397e-11
0.00040144777789250956,2.4952141859383003e-10,-1.987142531265708e+17,7.00000000668,2.7734375e-07,7.000000004362625,3.564591691976004e-11
0.00044259255568176054,4.712416600925015e-10,-1.987219550791979e+17,7.00000001321,2.919921875e-07,7.000000008633523,6.732023707304153e-11
0.00048785181124993667,8.882892840058713e-10,-1.9872927199108045e+17,7.0000000261,3.06640625e-07,7.000000017060445,1.2689846883441815e-10
0.0005376369923749304,1.671629923700594e-09,-1.987362252359247e+17,7.00000005149,3.22265625e-07,7.000000033664766,2.388042736659006e-10
0.0005924006916124235,3.1411313491337482e-09,-1.987428346800181e+17,7.00000010144,3.37890625e-07,7.000000066337654,4.4873304562369297e-10
0.0006526407607736659,5.894758648766568e-09,-1.9874911882842134e+17,7.00000019958,3.5546875e-07,7.0000001305392425,8.421083626911971e-10
0.0007189048368510325,1.104953163250022e-08,-1.987550949534752e+17,7.00000039207,3.73046875e-07,7.000000256498624,1.5785044610879996e-09
0.0007917953205361358,2.069069058267046e-08,-1.9876077920772995e+17,7.00000076887,3.916015625e-07,7.000000503156628,2.9558127279190993e-09
0.0008719748525897494,3.870857397253446e-08,-1.987661867231634e+17,7.0000015044,4.1015625e-07,7.00000098493723,5.529795503718999e-09
0.0009601723378487245,7.235716700123353e-08,-1.9877133169838717e+17,7.00000293404,4.296875e-07,7.000001922394307,1.033673530427892e-08
0.001057189571633597,1.3515540512583665e-07,-1.987762274754215e+17,7.0000056938,4.501953125e-07,7.0000037355282725,1.9307904714373243e-08
0.001163908528796957,2.5228588336324276e-07,-1.9878088660747094e+17,7.00001096092,4.716796875e-07,7.0000072076182835,3.604080337069849e-08
0.0012812993816766526,4.7063681012874647e-07,-1.9878532091899328e+17,7.00002082503,4.912109375e-07,7.000013747593622,6.723369797531272e-08
0.001410429319844318,8.774737059216887e-07,-1.9878954155919245e+17,7.00003873548,5.107421875e-07,7.000025736576591,1.2535292568093086e-07
0.00155247225182875,1.6351442921566814e-06,-1.98793559049905e+17,7.00006971493,5.2734375e-07,7.000046790547152,2.3359048033289958e-07
0.0017087194770116251,3.045560685026225e-06,-1.9879738332870243e+17,7.00011963126,5.380859375e-07,7.000081476303403,4.350750338172524e-07
0.0018805914247127878,5.6699640647608075e-06,-1.9880102378788893e+17,7.00019291251,5.400390625e-07,7.000133893277097,8.09979373424017e-07
0.0020696505671840668,1.055128252979901e-05,-1.988044893099591e+17,7.00028972403,5.302734375e-07,7.000205369252382,1.5072818543502074e-06
0.0022776156239024737,1.962680562189632e-05,-1.988077882999745e+17,7.00040549327,5.05859375e-07,7.000293128626479,2.8037119676654564e-06
0.0025063771862927214,3.649376911855496e-05,-1.9881092871523968e+17,7.00053378872,4.677734375e-07,7.0003915890640425,5.213103960579183e-06
0.0027580149049219937,6.782908711621968e-05,-1.9881391809259168e+17,7.00066963694,4.208984375e-07,7.00049519582873,9.689184153234743e-06
0.0030348163954141932,0.00012602107232538934,-1.9881676357356227e+17,7.00081069322,3.7109375e-07,7.000600400270158,1.800146632002108e-05
0.0033392980349556127,0.00023404566277584855,-1.9881947192763728e+17,7.00095669331,3.203125e-07,7.000705976776203,3.343172296512096e-05
0.0036742278384511743,0.00043449726907050546,-1.9882204957380058e+17,7.00110855663,2.734375e-07,7.0008123959199136,6.206383552339315e-05
0.004042650622296292,0.000806305907039134,-1.9882450260052864e+17,7.00126776858,2.3046875e-07,7.000921065655787,0.00011517140380208044
0.004447915684525921,0.0014956665028418345,-1.9882683678438134e+17,7.00143606682,1.93359375e-07,7.001033788040533,0.00021363509277684051
0.004893707252978514,0.0027732312512332154,-1.9882905760731546e+17,7.00161531334,1.611328125e-07,7.0011524602512605,0.00039611067848873674
0.005384077978276365,0.005139802942615055,-1.9883117027284074e+17,7.00180745799,1.337890625e-07,7.001278945963443,0.0007341234340589139
0.005923485776104002,0.009521534526599124,-1.9883317972111914e+17,7.00201453969,1.11328125e-07,7.001415042802196,0.0013599443067423543
0.006516834353714403,0.01763018358866047,-1.9883509064310403e+17,7.00223870597,9.1796875e-08,7.0015624963140555,0.002518035595332015
0.007169517789085845,0.032627488705063074,-1.9883690749380592e+17,7.00248223205,7.51953125e-08,7.001723032788338,0.004659922786472979
0.00788746956799443,0.060349406087640486,-1.9883863450476205e+17,7.00274754835,6.15234375e-08,7.001898397255147,0.008619006255688942
0.008677216524793875,0.11155999701318385,-1.9884027569578358e+17,7.0030372704,5.078125e-08,7.002090390742072,0.015932384586277937
0.009545938177273262,0.20609696420528914,-1.988418348860468e+17,7.00335421594,4.19921875e-08,7.002300904794591,0.029432748893177547
0.01050153199500059,0.3804884686323739,-1.988433157045885e+17,7.00370145282,3.41796875e-08,7.002531953084115,0.054335841832866744
0.01155268519450065,0.7019319169293432,-1.9884472160026314e+17,7.00408231134,2.734375e-08,7.002785700678455,0.10023609845169723
0.012708953713950717,1.2939165921103981,-1.9884605585121424e+17,7.0045004437,2.24609375e-08,7.003064491785778,0.184764340472388
0.01398084908534579,2.3831251789225645,-1.9884732157390784e+17,7.00495983626,1.85546875e-08,7.003370876794617,0.34028258974816716
0.015379933993880369,4.385158380761619,-1.9884852173177306e+17,7.00546487161,1.46484375e-08,7.003707639357745,0.6261195650313792
0.016918927393268408,8.06096524977236,-1.9884965914349293e+17,7.00602036992,1.171875e-08,7.00407782417385,1.1508960140263966
0.01861182013259525,14.801793763719589,-1.9885073649098378e+17,7.00663165457,9.765625e-09,7.004484766033906,2.113188087080485
0.020474002145854774,27.14725333076168,-1.9885175632709773e+17,7.00730455454,7.8125e-09,7.004932120630794,3.8754484502152557
0.022522402360440254,49.7252196085765,-1.988527210830846e+17,7.00804553573,6.4697265625e-09,7.0054238975831105,7.098102889352896
0.024775642596484283,90.95318414769001,-1.9885363307584256e+17,7.00886171285,5.615234375e-09,7.005964496094556,12.982250223847332
0.027254206856132713,166.11027150738883,-1.9885449451499994e+17,7.00976084925,5.4931640625e-09,7.006558743658897,23.707825422533222
0.029980627541745988,302.8692061216547,-1.9885530750987933e+17,7.01075168459,5.37109375e-09,7.007211938223484,43.22249830485935
0.032979690295920586,551.2288388683795,-1.988560740764605e+17,7.01184394547,5.2490234375e-09,7.007929894240827,78.65787003967945
0.03627865932551265,1001.2910041824292,-1.9885679614457286e+17,7.01304841412,5.2490234375e-09,7.00871899306772,142.86362531766503
0.03990752525806392,1814.967026613608,-1.9885747556579677e+17,7.01437703084,5.2490234375e-09,7.00958623821221,258.9264137616936
0.043899277783870316,3282.3174872769596,-1.988581141229588e+17,7.01584304738,5.2490234375e-09,7.010539315984103,468.1975721601391
0.048290205562257354,5921.258336365174,-1.988587135426745e+17,7.01746118135,5.2490234375e-09,7.011586662172098,844.496206302447
0.0531202261184831,10653.24283241557,-1.9885927551301e+17,7.01924779665,5.2490234375e-09,7.012737535453511,1519.1275559019803
0.058433248730331414,19111.35402672669,-1.9885980170867936e+17,7.02122110631,5.2490234375e-09,7.014002098343333,2724.743129352739
0.06427757360336456,34177.862811999825,-1.988602938258233e+17,7.02340140139,5.2490234375e-09,7.015391506606829,4871.8396941656665
0.07070633096370102,60917.03787502074,-1.988607536267591e+17,7.02581130966,5.2490234375e-09,7.016918008199819,8681.452142355718
0.07777796406007113,108184.34404996572,-1.9886118299188403e+17,7.02847608881,5.2490234375e-09,7.018595052963922,15413.96009223811
0.08555676046607825,191385.0613648939,-1.9886158397138816e+17,7.03142395894,5.2490234375e-09,7.020437414493114,27261.130619837906
0.09411343651268608,337171.59463449765,-1.9886195882463808e+17,7.03468648043,5.2490234375e-09,7.022461325803068,48013.30744188039
0.1035257801639547,591384.6412159824,-1.9886231003174506e+17,7.03829898369,5.2490234375e-09,7.024684630683652,84186.64642008676
0.11387935818035018,1032375.916958853,-1.9886264026188323e+17,7.04230105851,5.2490234375e-09,7.027126952894131,146912.94520211674
0.1252682939983852,1793178.1252600793,-1.988629522877447e+17,7.04673711172,5.2490234375e-09,7.0298098856839495,255082.02276022377
0.13779612339822375,3098079.9709290788,-1.9886324884521018e+17,7.05165700349,5.2490234375e-09,7.032757204506806,440521.3888151484
0.15157673573804614,5322416.389131692,-1.9886353245024992e+17,7.05711677388,5.2490234375e-09,7.035995106280545,756455.3853058738
0.16673540931185077,9089368.632456789,-1.9886380519815158e+17,7.06317947324,5.2490234375e-09,7.039552479210237,1291185.5773929139
0.18340995024303586,15425091.624072216,-1.988640685795678e+17,7.06991611231,5.2490234375e-09,7.043461208150499,2189987.4462604728
0.20175194526733947,26004652.87182387,-1.988643233502795e+17,7.07740675041,5.2490234375e-09,7.047756521878082,3689777.4193956074
0.22192813979407344,43537546.4212062,-1.988645694852636e+17,7.08574174344,5.2490234375e-09,7.052477390572278,6173369.159524993
0.2441219537734808,72364809.23542164,-1.988648062333685e+17,7.09502317706,5.2490234375e-09,7.057666984204515,10253361.259092906
0.26853514915082893,119372283.9649132,-1.9886503226975264e+17,7.10536651547,5.2490234375e-09,7.063373205059596,16900180.76340708
0.29538966406591183,195368903.85933426,-1.9886524592394205e+17,7.11690250122,5.2490234375e-09,7.069649309538496,27634879.087388262
0.324929630472503,317137640.36936486,-1.9886544544680992e+17,7.12977934788,5.2490234375e-09,7.076554634737466,44815260.637231044
0.35742359351975334,510442211.7453574,-1.9886562927351472e+17,7.14416527345,5.2490234375e-09,7.084155443174772,72054067.11355308
0.3931669528717287,814713326.8584484,-1.988657963480544e+17,7.16763121439,5.37109375e-09,7.097638098448242,114786541.03772482
0.43248464815890164,1288457022.347296,-1.9886594594170326e+17,7.19105863899,5.37109375e-09,7.110254453273511,181211098.8171597
0.47573411297479185,2018598068.405754,-1.9886607802281194e+17,7.2155464502,5.37109375e-09,7.122897948263412,283395618.3378839
0.523308524272271,3132125582.658526,-1.9886619316981482e+17,7.24190171757,5.37109375e-09,7.136115586247181,438911834.42919576
0.5756403766994982,4812058458.275888,-1.988662924647331e+17,7.27077810967,5.37109375e-09,7.150276069290466,672989184.1439624
0.6332054143694481,7318530927.179727,-1.988663773487239e+17,7.30276034254,5.37109375e-09,7.16565877640128,1021333998.1080179
0.696526955806393,11016103304.375185,-1.9886644946187738e+17,7.33841753194,5.37109375e-09,7.182502257124052,1533741711.4556043
0.7661806513870324,16408438224.558268,-1.9886651049024947e+17,7.37833870455,5.37109375e-09,7.201031548128226,2278623293.7450933
0.8427997165257357,24181437347.78611,-1.9886656203812397e+17,7.42315820834,5.37109375e-09,7.22147427386007,3348545799.7568254
0.9270806881783094,35255779556.044876,-1.988666055362747e+17,7.47357559286,5.37109375e-09,7.244070803445949,4866846350.987345
1.0197897569961403,50849513039.99763,-1.9886664218939936e+17,7.53037270357,5.37109375e-09,7.269081332364245,6995314911.885707
1.1217697326957543,72550911839.09592,-1.9886667295922106e+17,7.59442968004,5.37109375e-09,7.296791503023595,9942851157.11923
1.2339477059653299,102401207485.10048,-1.9886669857498106e+17,7.6667409446,5.2490234375e-09,7.327517514336003,13974884029.244078
1.357343476561863,142762299274.6882,-1.9886671965991363e+17,7.73001859746,5.2490234375e-09,7.351940650100471,19418314982.281204
1.4930788242180495,196967437776.61426,-1.9886673643847165e+17,7.80575058399,5.2490234375e-09,7.381498977893033,26683934843.927383
1.6423877066398544,268943367244.62674,-1.988667491250988e+17,7.89470916916,5.2490234375e-09,7.416197985074957,36264318696.16659
1.80662747730384,363449064323.37225,-1.988667578281145e+17,7.99799254973,5.2490234375e-09,7.456204273798957,48744515436.69872
1.987291225034224,486169790446.10803,-1.98866762558899e+17,8.11701240065,5.2490234375e-09,7.501824936755347,64806869601.036545
2.186021347537647,643801446498.1776,-1.9886676324474787e+17,8.25349346655,5.2490234375e-09,7.553496246659685,85232245502.58832
2.404624482291412,844120900110.1957,-1.9886675974108858e+17,8.40948302748,5.2490234375e-09,7.611779510760446,110896656808.94963
2.6450879305205532,1096039352499.4458,-1.9886675184508406e+17,8.58736858783,5.2490234375e-09,7.677362475153357,142762485950.9518
2.9095977235726087,1409638524336.6338,-1.9886673931221034e+17,8.7899023952,5.2490234375e-09,7.751064992698604,181863850408.23343
3.2005584959298696,1796193682895.9065,-1.9886672187566752e+17,9.0202314748,5.2490234375e-09,7.833847850350717,229286261005.8851
3.520615345522857,2268193254498.3823,-1.988666992667086e+17,9.28193187091,5.2490234375e-09,7.926823742672169,286141502338.2069
3.872677880075143,2839371491917.4805,-1.9886667123278074e+17,9.57904586628,5.2490234375e-09,8.031269435293451,353539563675.9301
4.259946668082658,3524777409045.917,-1.988666375500954e+17,9.91612127042,5.2490234375e-09,8.148638244428744,432560300668.1296
4.685942334890924,4340908525678.666,-1.988665980279532e+17,10.2982525847,5.2490234375e-09,8.28057212561737,524228091951.4391
5.154537568380016,5305940304440.282,-1.9886655250364538e+17,10.7311250417,5.2490234375e-09,8.428912968293073,629492833109.0338
5.669992325218018,6440080284252.249,-1.9886650082867107e+17,11.2210641169,5.2490234375e-09,8.595713161618852,749220008062.6438
6.236992557739821,7766069538792.805,-1.988664428488392e+17,11.7750948662,5.2490234375e-09,8.783246117183788,884191269967.8368
6.860692813513804,9309844311495.818,-1.988663783820647e+17,12.4010169503,5.2490234375e-09,8.994018129971616,1035115137301.2852
7.546763094865185,11101359979342.68,-1.9886630719799194e+17,13.1075019836,5.2490234375e-09,9.230783590402414,1202645460227.794
8.301440404351705,13175571142895.486,-1.9886622900291008e+17,13.9042195621,5.2490234375e-09,9.496565949807657,1387403742840.5732
9.131585444786877,15573558602726.904,-1.988661434320085e+17,14.8019969659,5.2490234375e-09,9.794686834942436,1590000667215.659
10.044744989265565,18343797783921.73,-1.9886605004931786e+17,15.813015491,5.2490234375e-09,10.12880524816327,1811052472081.8525
11.049220488192123,21543573205258.594,-1.9886594835418915e+17,16.9510443876,5.2490234375e-09,10.502967974136176,2051189078964.1736
12.154143537011336,25240557324407.39,-1.988658377922644e+17,18.2317122236,5.2490234375e-09,10.921671379005046,2311052626334.0825
13.36955889071247,29514586088680.184,-1.9886571776870266e+17,19.6728156835,5.2490234375e-09,11.389934031629275,2591286833331.9277
14.706515779783718,34459674799258.668,-1.9886558766183066e+17,21.2946673532,5.2490234375e-09,11.913379235804445,2892518916521.4883
16.177168357762092,40186324946859.04,-1.9886544683608608e+17,23.1204865334,5.2490234375e-09,12.498326717321621,3215336409086.2017
17.794886193538304,46824175714760.375,-1.988652946538365e+17,25.1768399134,5.2490234375e-09,13.151893264356733,3560261231868.397
19.574375812892136,54525054309403.38,-1.9886513048615728e+17,27.4941414945,5.2490234375e-09,13.88210286601412,3927722970767.671
21.53181439418135,63466478972753.92,-1.9886495372288387e+17,30.1072231975,5.2490234375e-09,14.698007615561005,4318032799599.382
