t(s),inventory(He/m2),flux_surface_left(He/m2/s),max_ib(He),x_max_ib(m),mean_ib(He),total_bubbles
1e-06,1301.7185008317392,-6.992435256294525e+20,2743.53041007,1.07421875e-08,1858.7597112771982,0.7003156421640414
2.1000000000000002e-06,12327.197423819815,-7.160457189386019e+20,1422.88476381,1.07421875e-08,796.6053284289462,15.474661019568297
3.3100000000000005e-06,48026.11750953764,-7.205091389047082e+20,774.006164936,1.07421875e-08,368.2657270935576,130.41158591805814
4.641000000000001e-06,129005.23948394683,-7.227434641072074e+20,439.809330462,1.07421875e-08,182.10010036497087,708.4303590464277
6.105100000000001e-06,298587.38881234766,-7.241361995025765e+20,267.720586434,1.07421875e-08,100.58834847180405,2968.40929738542
7.715610000000002e-06,601054.6036149891,-7.251054383119006e+20,165.599477427,1.07421875e-08,57.49619186874412,10453.815880312803
9.487171000000002e-06,1130518.895798733,-7.258258067142115e+20,105.123992209,1.07421875e-08,34.808549956009635,32478.195650995538
1.1435888100000002e-05,2078393.8751558152,-7.263848258366851e+20,68.7665619558,1.07421875e-08,22.65312383764466,91748.66521949471
1.3579476910000003e-05,3846760.564544681,-7.268318603915371e+20,46.5095063739,1.07421875e-08,15.99679451357742,240470.71188416585
1.5937424601000003e-05,7278803.99472918,-7.271971776825051e+20,32.6433163743,1.07421875e-08,12.27256673483436,593095.491106117
1.8531167061100006e-05,14112351.390556222,-7.275005333537125e+20,23.8648474985,1.07421875e-08,10.147100552447174,1390776.7364296739
2.1384283767210007e-05,27847804.628882974,-7.27755468492788e+20,18.2265438495,1.07421875e-08,8.912209109032583,3124680.344479243
2.452271214393101e-05,55367706.45501585,-7.279716392694394e+20,14.5581293151,1.07421875e-08,8.18329787710187,6765940.4908066755
2.7974983358324114e-05,109889773.41011484,-7.281561618800272e+20,12.1437993746,1.07421875e-08,7.747110002520294,14184615.085414488
3.177248169415653e-05,216236623.0219302,-7.28314429409686e+20,10.5385711505,1.07421875e-08,7.4831140416512305,28896609.328462835
3.5949729863572185e-05,420050481.4980622,-7.284506290837497e+20,9.4617261232,1.07421875e-08,7.321991504758291,57368337.7295763
4.0544702849929404e-05,803596148.2743251,-7.285680813813306e+20,8.73380719342,1.07421875e-08,7.2232430185566905,111251434.59937131
4.559917313492235e-05,1512358629.1475391,-7.286694689582998e+20,8.23870925306,1.07421875e-08,7.162866768638007,211138735.0898764
5.115909044841459e-05,2798996582.965793,-7.287569950649161e+20,7.90049889691,1.07421875e-08,7.126454602645319,392761441.562655
5.727499949325605e-05,5094679522.476274,-7.288324955182869e+20,7.66903066762,1.07421875e-08,7.1052587498283115,717029414.6711236
6.400249944258165e-05,9122819401.301607,-7.288975193008299e+20,7.51090123172,1.07421875e-08,7.093916508168787,1286006029.3628347
7.140274938683982e-05,16077188036.40232,-7.289533875009204e+20,7.40369054905,1.07421875e-08,7.08911549419154,2267869390.698339
7.954302432552381e-05,27895927030.929646,-7.29001237021155e+20,7.33234868779,9.765625e-09,7.088800552357399,3935211158.0643616
8.84973267580762e-05,47675543284.019066,-7.290420533999542e+20,7.28662235375,9.765625e-09,7.091696963671729,6722727088.91033
9.834705943388383e-05,80285085364.57713,-7.290766957440775e+20,7.25935508856,9.765625e-09,7.097020753437897,11312505367.225523
0.00010918176537727222,133260526446.49681,-7.291059158755284e+20,7.2458031339,9.765625e-09,7.104301015622694,18757725236.226704
0.00012109994191499945,218082730358.2281,-7.291303731915103e+20,7.2427551212,9.765625e-09,7.11327006974739,30658575903.89124
0.0001342099361064994,351968395150.40454,-7.291506463204133e+20,7.24833202573,8.7890625e-09,7.123795145119172,49407427920.15204
0.00014863092971714937,560330321392.6853,-7.29167242367801e+20,7.26091738688,7.8125e-09,7.135835761956446,78523433005.56268
0.00016449402268886432,880088442399.4203,-7.29180604343991e+20,7.28000432089,7.4462890625e-09,7.149417187325926,123099326747.8628
0.00018194342495775077,1364032353917.7126,-7.2919111722235e+20,7.30508537451,6.34765625e-09,7.16461406353516,190384623905.99063
0.00020113776745352586,2086444691684.4104,-7.291991129761431e+20,7.33619604221,5.126953125e-09,7.181540557963198,290528846122.1418
0.00022225154419887848,3150187224151.7104,-7.292048748678231e+20,7.37330248774,4.5166015625e-09,7.200344758878347,437505054222.21466
0.00024547669861876636,4695422896521.1875,-7.292086412074975e+20,7.41637308896,4.2724609375e-09,7.221205889705685,650226979847.622
0.000271024368480643,6910093781346.588,-7.292106087490359e+20,7.4658046903,4.150390625e-09,7.244333441160692,953861916692.7037
0.00029912680532870735,10042196476163.957,-7.292109358473524e+20,13.3552792521,2.625e-06,7.269967650639163,1381326156971.4226
0.0003300394858615781,14413790881617.727,-7.292097454559528e+20,10.4112655741,3.25e-06,7.298377929112045,1974930734146.207
0.0003640434344477359,20436599898839.977,-7.292071280013202e+20,10.0577901559,3.25e-06,7.329874795884067,2788124008655.06
0.00040144777789250956,28628874605325.645,-7.29203144126143e+20,282.292524979,3.875e-06,7.364802273833189,3887256377138.969
0.00044259255568176054,39633206592259.43,-7.291978272654194e+20,358.005536617,3.875e-06,7.403545019285793,5353274207020.73
0.00048785181124993667,54234865847671.34,-7.291911859922588e+20,131.26412541,3.875e-06,7.446532130494611,7283238008948.0625
0.0005376369923749304,73380291381982.17,-7.291832060660905e+20,68.8993368222,3.875e-06,7.494241402660373,9791556935426.844
0.0005924006916124235,98195462805027.39,-7.291738521258926e+20,38.8662290981,3.875e-06,7.547204027424071,13010839835284.324
0.0006526407607736659,130004069189039.45,-7.29163068996956e+20,23.5923416435,3.875e-06,7.606009755770914,17092282729508.908
0.0007189048368510325,170345654719412.97,-7.291507826164578e+20,15.7171928888,3.875e-06,7.6713125650188045,22205542177513.32
0.0007917953205361358,220994237699326.38,-7.291369006234826e+20,11.6230854354,3.875e-06,7.743836894479154,28538080115928.156
0.0008719748525897494,283978239378614.3,-7.291213126951393e+20,9.47743673722,3.875e-06,7.824384541137923,36294003430628.234
0.0009601723378487245,361602886260862.7,-7.291038907349075e+20,9.22506542664,3.90625e-09,7.9138423361002666,45692455182150.0
0.001057189571633597,456476530880024.2,-7.290844890280026e+20,9.51724081524,3.90625e-09,8.01319075359766,56965638896725.516
0.001163908528796957,571542547678593.6,-7.290629444708118e+20,9.84761907516,3.90625e-09,8.123513635412303,70356569008157.44
0.0012812993816766526,710118593004646.5,-7.29039076960535e+20,10.2209315059,3.90625e-09,8.246009242587181,86116638014081.0
0.001410429319844318,875945077996516.6,-7.290126900029991e+20,10.64247042,3.90625e-09,8.382002871203571,104503075393332.55
0.00155247225182875,1073244711327798.2,-7.289835715680774e+20,11.1181656416,3.90625e-09,8.532961288272354,125776348335584.12
0.0017087194770116251,1306794956160923.2,-7.289514951990546e+20,11.654674223,3.90625e-09,8.7005092567773,150197524948667.75
0.0018805914247127878,1582015245918699.5,-7.289162213682461e+20,12.2594851512,3.90625e-09,8.886448426336294,178025592454930.03
0.0020696505671840668,1905070846594636.2,-7.288774990666839e+20,12.941040956,3.90625e-09,9.092778869849605,209514701046078.12
0.0022776156239024737,2282995360289926.0,-7.28835067618713e+20,13.70887833,3.90625e-09,9.321723550131084,244911292210314.7
0.0025063771862927214,2723834044926234.0,-7.287886587190673e+20,14.5737901455,3.90625e-09,9.575756007755322,284451070257035.0
0.0027580149049219937,3236810376828292.0,-7.287379986961895e+20,15.5480116076,3.90625e-09,9.857631576134084,328355787272959.5
0.0030348163954141932,3832518595806151.5,-7.286828110075544e+20,16.6454337196,3.90625e-09,10.170422455502925,376829833035351.0
0.0033392980349556127,4523145331923448.0,-7.286228189682756e+20,17.8818477597,3.90625e-09,10.517557016396184,430056649550096.1
0.0036742278384511743,5322723804941192.0,-7.285577487026439e+20,19.2752250751,3.90625e-09,10.902863756536528,488195021399776.0
0.004042650622296292,6247424501057732.0,-7.284873322903386e+20,20.8460371995,3.90625e-09,11.330620403161353,551375324453958.4
0.004447915684525921,7315886663030153.0,-7.284113110569732e+20,22.6176220893,3.90625e-09,11.805608735364196,619695843477779.1
0.004893707252978514,8549595382591282.0,-7.283294389350393e+20,24.6166031753,3.90625e-09,12.333175797607092,693219291032087.0
0.005384077978276365,9973309569204688.0,-7.282414857994271e+20,26.8733689508,3.90625e-09,12.91930228582208,771969673637067.2
0.005923485776104002,1.1615546604025548e+16,-7.281472406642563e+20,29.4226219837,3.90625e-09,13.570679011439845,855929654974069.1
0.006516834353714403,1.3509130094766352e+16,-7.280465146175324e+20,32.3040075893,3.90625e-09,14.294792486483733,945038559149406.8
0.007169517789085845,1.5691807851359928e+16,-7.279391433687888e+20,35.5628339516,3.90625e-09,15.100020825071661,1039191139743706.9
0.00788746956799443,1.8206948030208836e+16,-7.278249892935118e+20,39.2508972892,3.90625e-09,15.995741324030073,1138237213354839.2
0.008677216524793875,2.1104322371790944e+16,-7.277039428766933e+20,43.4274277556,3.90625e-09,16.992451269004153,1241982221263581.5
0.009545938177273262,2.4440986605211456e+16,-7.275759234851289e+20,48.1601742083,3.90625e-09,18.101903714092916,1350188742092543.5
0.01050153199500059,2.828226943317588e+16,-7.274408794319774e+20,53.5266488148,3.90625e-09,19.337260205000153,1462578934830838.2
0.01155268519450065,3.2702883057368996e+16,-7.272987873346107e+20,59.6155557576,3.90625e-09,20.71326266106126,1578837848604457.2
0.012708953713950717,3.778816997014053e+16,-7.271496508044098e+20,66.528432111,3.90625e-09,22.246426904047045,1698617496334485.2
0.01398084908534579,4.3635502735263976e+16,-7.269934985415155e+20,74.3815333677,3.90625e-09,23.95526062564243,1821541556870194.2
0.015379933993880369,5.035585572064142e+16,-7.268303819354134e+20,83.3080011734,3.90625e-09,25.860508925472253,1947210546620046.8
0.016918927393268408,5.807557024414994e+16,-7.266603722915384e+20,93.4603566719,3.90625e-09,27.985430932158394,2075207288568660.2
0.01861182013259525,6.693833736979388e+16,-7.264835578135328e+20,105.013369595,3.90625e-09,30.356111445919076,2205102504286422.2
0.020474002145854774,7.710742566988896e+16,-7.263000404704804e+20,118.16736096,3.90625e-09,33.00181201771036,2336460362494926.5
0.022522402360440254,8.876818468181323e+16,-7.261099328694472e+20,133.152006134,3.90625e-09,35.95536641262756,2468843834411259.0
0.024775642596484283,1.021308585734699e+17,-7.259133552378001e+20,150.230907161,3.7841796875e-09,39.25362600091452,2601819729242095.5
0.027254206856132713,1.1743374873630309e+17,-7.257104325994619e+20,169.70829235,3.7841796875e-09,42.93796128652055,2734963310267106.0
0.029980627541745988,1.3494676870251315e+17,-7.255012922068954e+20,191.929535029,3.7841796875e-09,47.05482653011107,2867862420365289.0
0.032979690295920586,1.5497543999629523e+17,-7.252860612683655e+20,217.292927209,3.7841796875e-09,51.65639526160702,3000121073323884.0
0.03627865932551265,1.778653833482002e+17,-7.250648649897186e+20,246.255828863,3.7841796875e-09,56.801275418872116,3131362492066591.0
0.03990752525806392,2.0400736620624134e+17,-7.248378249326697e+20,279.343580678,3.7841796875e-09,62.55531390726982,3261231595906559.5
0.043899277783870316,2.3384297475561648e+17,-7.246050576780398e+20,317.159778774,3.7841796875e-09,68.99250156389527,3389396955537987.5
0.048290205562257354,2.678709868082359e+17,-7.243666737726621e+20,360.398120314,3.7841796875e-09,76.195990845708,3515552246714102.0
0.0531202261184831,3.066545310516971e+17,-7.241227769324573e+20,409.856060995,3.7841796875e-09,84.25924005927058,3639417241788398.5
0.058433248730331414,3.508291283735368e+17,-7.238734634709723e+20,466.450562426,3.7841796875e-09,93.28729962946619,3760738383113430.0
0.06427757360336456,4.011117224321384e+17,-7.236188219218862e+20,531.2362501,3.7841796875e-09,103.39825778544333,3879288984389521.0
0.07070633096370102,4.5831081947600186e+17,-7.233589328248633e+20,605.426351963,3.7841796875e-09,114.72486514630062,3994869106113570.5
0.07777796406007113,5.2333787178033837e+17,-7.230938686461953e+20,690.416844418,3.7841796875e-09,127.41636004159002,4107305149900024.0
0.08555676046607825,5.972200551543382e+17,-7.22823693808367e+20,787.814298119,3.7841796875e-09,141.6405190303362,4216449214129377.0
0.09411343651268608,6.811146089758502e+17,-7.225484648056505e+20,899.467991506,3.7841796875e-09,157.58596001848127,4322178250498781.0
0.1035257801639547,7.763249273580247e+17,-7.222682303858142e+20,1027.50694709,3.7841796875e-09,175.46472865361238,4424393057881049.5
0.11387935818035018,8.84318612597572e+17,-7.219830317808546e+20,1174.38264589,3.7841796875e-09,195.51520233738478,4523017146623590.0
0.1252682939983852,1.0067477272795075e+18,-7.216929029722558e+20,1342.91829093,3.7841796875e-09,218.0053502847965,4617995503157691.0
0.13779612339822375,1.1454715096361215e+18,-7.213978709785537e+20,1536.38088588,3.662109375e-09,243.23639262573118,4709293281612933.0
0.15157673573804614,1.302581848333493e+18,-7.210979561550077e+20,1758.53986956,3.662109375e-09,271.5469066443366,4796894446083942.0
0.16673540931185077,1.4804318481856645e+18,-7.207931724969352e+20,2013.68927777,3.662109375e-09,303.3174339494066,4880800384301684.0
0.18340995024303586,1.6816678578202872e+18,-7.20483527939766e+20,2306.80567693,3.662109375e-09,338.97564873503046,4961028510737680.0
0.20175194526733947,1.9092653745392847e+18,-7.201690246502217e+20,2643.62389647,3.662109375e-09,379.00215440557383,5037610874623582.0
0.22192813979407344,2.1665692910939487e+18,-7.198496593041667e+20,3030.75313355,3.662109375e-09,423.93698379230483,5110592786015089.0
0.2441219537734808,2.457339004449507e+18,-7.195254233477087e+20,3475.81084414,3.662109375e-09,474.386887081314,5180031470870521.0
0.26853514915082893,2.7857989685529236e+18,-7.191963032390583e+20,3987.5771358,3.662109375e-09,531.0335015172674,5245994764159600.0
0.29538966406591183,3.156695342419946e+18,-7.188622806694321e+20,4576.17278945,3.662109375e-09,594.6425080712659,5308559848267065.0
0.324929630472503,3.575359462403453e+18,-7.185233327620262e+20,5253.26451139,3.662109375e-09,666.0738927063699,5367812042408941.0
0.35742359351975334,4.047778954273029e+18,-7.181794322487208e+20,6032.30156129,3.662109375e-09,746.2934437998879,5423843647430468.0
0.3931669528717287,4.5806773978261504e+18,-7.178305476247109e+20,6928.78852946,3.662109375e-09,836.3856328663585,5476752849194472.0
0.43248464815890164,5.181603565388767e+18,-7.174766432817873e+20,7960.59975682,3.662109375e-09,937.568043168146,5526642682785514.0
0.47573411297479185,5.859031377124378e+18,-7.171176796213941e+20,9148.34172069,3.662109375e-09,1051.2075303264712,5573620058928565.0
0.523308524272271,6.622471852087793e+18,-7.167536131489977e+20,10515.7706624,3.662109375e-09,1178.8383209032443,5617794853337947.0
0.5756403766994982,7.482598486152609e+18,-7.163843965516041e+20,12090.4344047,3.5400390625e-09,1322.182279394073,5659279059148878.0
0.6332054143694481,8.451387658229292e+18,-7.160099787605602e+20,13904.2112246,3.5400390625e-09,1483.171601467402,5698186002123936.0
0.696526955806393,9.54227585671647e+18,-7.156303050019387e+20,15993.2347168,3.5400390625e-09,1663.9742219526254,5734629617950984.0
0.7661806513870324,1.0770335731299777e+19,-7.152453168369452e+20,18399.5121504,3.5400390625e-09,1867.0222604131407,5768723790640012.0
0.8427997165257357,1.2152473213698335e+19,-7.148549521947511e+20,21171.4696503,3.5400390625e-09,2095.0438655711887,5800581750771652.0
0.9270806881783094,1.3707648217770994e+19,-7.144591454000458e+20,24364.9307099,3.5400390625e-09,2351.0988628693353,5830315532134562.0
1.0197897569961403,1.5457121727872078e+19,-7.140578271973615e+20,28044.2431544,3.5400390625e-09,2638.6186575967927,5858035485108770.0
1.1217697326957543,1.7424732418235685e+19,-7.136509247738926e+20,32283.5769469,3.5400390625e-09,2961.4508998839133,5883849844992778.0
1.2339477059653299,1.963720631965793e+19,-7.132383617822339e+20,37168.4185898,3.5400390625e-09,3323.909478149167,5907864353331427.0
1.357343476561863,2.212450346750666e+19,-7.128200583642116e+20,42797.2917376,3.5400390625e-09,3730.8304750242783,5930181930167354.0
1.4930788242180495,2.492020593234585e+19,-7.123959311768356e+20,49283.73808,3.5400390625e-09,4187.634795231909,5950902395003570.0
1.6423877066398544,2.8061952157068026e+19,-7.119658934215255e+20,56758.5976586,3.5400390625e-09,4700.398259298422,5970122234122462.0
1.80662747730384,3.1591923108897034e+19,-7.115298548780057e+20,65372.6336524,3.5400390625e-09,5275.930051425835,5987934411745893.0
1.987291225034224,3.555738640827972e+19,-7.110877219448602e+20,75299.5534197,3.5400390625e-09,5921.860515554903,6004428222326652.0
2.186021347537647,4.001130532766707e+19,-7.106393976894723e+20,86739.4853518,3.5400390625e-09,6646.739412044832,6019689181008199.0
2.404624482291412,4.501302037061843e+19,-7.101847819111892e+20,99926.9682606,3.41796875e-09,7460.145880108813,6033798948977373.0
2.6450879305205532,5.0629012055586415e+19,-7.09723771222807e+20,115126.985036,3.41796875e-09,8372.811500017222,6046835290091301.0
2.9095977235726087,5.693375455031596e+19,-7.092562591568268e+20,132644.366557,3.41796875e-09,9396.758016083253,6058872054901231.0
3.2005584959298696,6.401067094427035e+19,-7.087821363036368e+20,152832.000199,3.41796875e-09,10545.451468553696,6069979188197752.0
3.520615345522857,7.195320222079233e+19,-7.083012904879538e+20,176096.332356,3.41796875e-09,11833.974691408723,6080222756689619.0
3.872677880075143,8.086600341273901e+19,-7.078136069861124e+20,202905.465963,3.41796875e-09,13279.220365182628,6089664994547809.0
4.259946668082658,9.086628201109276e+19,-7.073189687795358e+20,233798.479712,3.41796875e-09,14900.107070341941,6098364366250657.0
4.685942334890924,1.0208529546453882e+20,-7.068172568292323e+20,269396.153146,3.41796875e-09,16717.8210689112,6106375648102773.0
5.154537568380016,1.1467002658193469e+20,-7.063083503445596e+20,310413.30892,3.41796875e-09,18756.086852421875,6113750031346648.0
5.669992325218018,1.2878505785636363e+20,-7.057921270101879e+20,357673.014157,3.41796875e-09,21041.469837387413,6120535250229176.0
6.236992557739821,1.4461466820205363e+20,-7.052684631321254e+20,412122.917439,3.41796875e-09,23603.714972587808,6126775737209248.0
6.860692813513804,1.623651783715213e+20,-7.047372336696328e+20,474854.037436,3.41796875e-09,26476.125455094352,6132512804673999.0
7.546763094865185,1.8226757444133467e+20,-7.041983121351471e+20,547122.364439,3.41796875e-09,29695.98624527115,6137784848629479.0
8.301440404351705,2.0458044226376483e+20,-7.036515703663286e+20,630373.688485,3.41796875e-09,33305.03763572183,6142627565877270.0
9.131585444786877,2.2959324972149427e+20,-7.030968781979483e+20,726273.689526,3.2958984375e-09,37350.00477428304,6147074173323221.0
10.044744989265565,2.576300180362071e+20,-7.025341030808499e+20,836797.965173,3.2958984375e-09,41883.189772865146,6151155617166432.0
11.049220488192123,2.8905342831329762e+20,-7.019631097060533e+20,964109.293478,3.2958984375e-09,46963.13385605057,6154900761079788.0
12.154143537011336,3.24269415001808e+20,-7.013837596920035e+20,1110748.74277,3.2958984375e-09,52655.35791855451,6158336545796094.0
13.36955889071247,3.637323040661338e+20,-7.007959113827203e+20,1279640.19041,3.2958984375e-09,59033.19087237813,6161488116955671.0
14.706515779783718,4.079505604696555e+20,-7.001994197867431e+20,1474147.64457,3.2958984375e-09,66178.6962786415,6164378922667254.0
16.177168357762092,4.574932171390523e+20,-6.995941366651733e+20,1698141.12392,3.2958984375e-09,74183.70898510421,6167030786111208.0
17.794886193538304,5.1299706600527495e+20,-6.989799107554823e+20,1956072.38037,3.2958984375e-09,83150.9948421467,6169463961064389.0
19.574375812892136,5.7517470111342035e+20,-6.983565880995473e+20,2253061.93998,3.2958984375e-09,93195.54806607364,6171697179200383.0
21.53181439418135,6.448235142870955e+20,-6.977240124321027e+20,2594999.15315,3.2958984375e-09,104446.04248275018,6173747697463899.0
