t(s),inventory(He/m2),flux_surface_left(He/m2/s),max_ib(He),x_max_ib(m),mean_ib(He),total_bubbles
1e-06,32853.925792454495,-2.8561976030297357e+21,7.01336580282,3.41796875e-09,7.008608247909173,4687.653330068144
1.9090909090909087e-06,336835.51283315674,-2.8979560864104637e+21,7.0207883741,3.5400390625e-09,7.01333172751771,48027.888301866464
2.9090909090909084e-06,2237737.560888397,-2.9089370736788263e+21,7.02712106944,3.662109375e-09,7.017480537519094,318880.4798138435
4.009090909090909e-06,10540843.156308338,-2.9143428165034086e+21,7.0334321134,3.662109375e-09,7.021665293232254,1501188.495337139
5.219090909090909e-06,39402596.98314416,-2.9176244191336685e+21,7.04016194862,3.662109375e-09,7.026081144674346,5608047.526324213
6.55009090909091e-06,125088653.8280555,-2.9198358061343126e+21,7.04754600748,3.7841796875e-09,7.030830428572351,17791447.980271578
8.01419090909091e-06,351607243.2734097,-2.9214213029519724e+21,7.05573500187,3.7841796875e-09,7.035985709132489,49972705.71727207
9.62470090909091e-06,899141785.7889714,-2.922605036191412e+21,7.06486191985,3.7841796875e-09,7.041609361057525,127689813.4624634
1.139626190909091e-05,2131079993.5322173,-2.9235139746494053e+21,7.07505895585,3.7841796875e-09,7.047761626893715,302376854.71656424
1.3344979009090911e-05,4743864745.69708,-2.924226175546766e+21,7.08646775106,3.7841796875e-09,7.054504622817146,672458946.3523046
1.5488567819090912e-05,10015541098.204178,-2.92479263278351e+21,7.09924535441,3.7841796875e-09,7.061904702767677,1418249257.070677
1.7846515510090912e-05,20204370259.189644,-2.925248254444931e+21,7.11356987318,3.90625e-09,7.070034112364862,2857747209.996341
2.0440257970190915e-05,39168679540.6327,-2.925617831780486e+21,7.12964046932,3.90625e-09,7.078972339111213,5533102499.105181
2.3293374676300916e-05,73303238293.27036,-2.9259194937204503e+21,7.14768418013,3.90625e-09,7.0887996468343255,10340712383.655205
2.643180305302192e-05,132915987024.3299,-2.9261668102407334e+21,7.16796198869,3.90625e-09,7.099626346900004,18721546815.25833
2.9884074267415023e-05,234198680623.43506,-2.9263701284663774e+21,7.19076982754,3.90625e-09,7.1115590312679835,32932115109.178482
3.3681572603247435e-05,401977086081.16907,-2.926537452615883e+21,7.21644567492,3.90625e-09,7.124717520536517,56420073486.77295
3.7858820772663094e-05,673453109670.7128,-2.926675042067507e+21,7.24537562001,3.90625e-09,7.139236047187888,94331256904.71922
4.245379375902031e-05,1103170939503.2642,-2.926787829379022e+21,7.27800077951,3.90625e-09,7.155264711963991,154176118412.3213
4.750826404401326e-05,1769444992342.069,-2.9268797199597495e+21,7.31482514172,3.90625e-09,7.172971182277553,246682294878.56903
5.30681813575055e-05,2782472928860.3325,-2.9269538119602924e+21,7.35642406433,3.90625e-09,7.192540348596164,386855379880.26917
5.918409040234696e-05,4294323635767.568,-2.9270125611332225e+21,7.40345530806,3.90625e-09,7.214183538212484,595261211891.9845
6.591159035167256e-05,6510915882648.499,-2.92705790689824e+21,7.45666888934,3.90625e-09,7.238133644080579,899529658169.9889
7.331184029593073e-05,9706024359813.318,-2.9270913704352085e+21,7.51691973025,3.90625e-09,7.264650248369735,1336062167891.9028
8.145211523461472e-05,14237233185455.941,-2.9271141320928857e+21,7.58518108642,3.90625e-09,7.294022542685788,1951904193075.5454
9.04064176671671e-05,20563643047887.227,-2.927127093045345e+21,7.66255919691,3.90625e-09,7.326572525590244,2806720738252.7856
0.00010025615034297473,29265031598832.78,-2.927130924538975e+21,7.75030916546,3.90625e-09,7.36265849672714,3974791389800.534
0.00011109085628636313,41062092167963.5,-2.927126107010561e+21,7.84985208798,3.90625e-09,7.402678869519453,5546923335690.916
0.00012300903282409036,56837355050569.22,-2.927112960672941e+21,7.96279346509,3.90625e-09,7.447076328588412,7632170336750.49
0.00013611902701559032,77656447456667.55,-2.9270916687614575e+21,8.09094299068,3.90625e-09,7.496342364361506,10359245040068.533
0.00015054002062624028,104789484203991.48,-2.9270622944377805e+21,8.23633589227,3.90625e-09,7.551022226333209,13877522944979.791
0.00016640311359795523,139732601988103.0,-2.927024792292838e+21,8.40125612108,3.90625e-09,7.611720348612001,18357558552920.73
0.00018385251586684168,184229943604452.6,-2.9269790154167366e+21,8.58826184733,3.90625e-09,7.679106317035757,23991065626444.92
0.00020304685836261676,240296741210920.16,-2.9269247190538146e+21,8.80021390154,3.90625e-09,7.753921466267055,30990350141707.77
0.00022416063510796936,310244507969407.44,-2.926861561888228e+21,9.0403080038,3.90625e-09,7.83698621753926,39587221331980.51
0.00024738578952785724,396709691296453.44,-2.92678910597734e+21,9.31211182211,3.90625e-09,7.929208292341149,50031437776661.36
0.0002729334593897339,502687438954009.56,-2.926706816253553e+21,9.61960808288,3.90625e-09,8.031591963184702,62588767115938.37
0.00030103589623779823,631572362052348.8,-2.926614060357256e+21,9.96724975226,3.7841796875e-09,8.145248528331127,77538746651571.0
0.00033194857677066897,787208341430154.4,-2.9265101093659565e+21,10.360007328,3.7841796875e-09,8.271408221579952,95172227067253.47
0.00036595252535682684,973949525170177.4,-2.926394139778966e+21,10.8034492067,3.7841796875e-09,8.411433789798522,115788764378243.56
0.0004033568688016005,1196734726705380.8,-2.9262652369333927e+21,11.3038214156,3.7841796875e-09,8.566835989170876,139693899616864.77
0.0004445016465908515,1461177483846526.2,-2.926122399889108e+21,11.8681433369,3.7841796875e-09,8.73929126628542,167196336559176.2
0.0004897609021590276,1773674109191068.0,-2.925964547738798e+21,12.5043196319,3.7841796875e-09,8.9306619031744,198605000213994.94
0.0005395460832840213,2141532177502797.8,-2.9257905272718036e+21,13.2212700608,3.7841796875e-09,9.143018918103717,234225937481375.8
0.0005943097825215144,2573122073173216.0,-2.925599121934562e+21,14.029079526,3.7841796875e-09,9.378668028801657,274359009751834.88
0.0006545498516827568,3078054468075469.5,-2.925389062066247e+21,14.9391709882,3.7841796875e-09,9.640179004749466,319294327061664.7
0.0007208139277601234,3667386914810398.5,-2.925159036424649e+21,15.9645043262,3.7841796875e-09,9.930418762930621,369308384909247.8
0.0007937044114452267,4353863113395091.0,-2.9249077050362555e+21,17.1198047027,3.7841796875e-09,10.252588599436624,424659886736734.4
0.0008738839434988404,5152188828466493.0,-2.924633713393233e+21,18.4218245827,3.7841796875e-09,10.61026599928009,485585265140013.5
0.0009620814287578153,6079348887319716.0,-2.9243357079732287e+21,19.8896442194,3.7841796875e-09,11.00745152960363,552293950236329.44
0.0010590986625426879,7154970168886121.0,-2.9240123529767666e+21,21.5450161842,3.7841796875e-09,11.448621397367202,624963471194140.8
0.0011658176197060477,8401735998852203.0,-2.9236623480691716e+21,23.4127603819,3.7841796875e-09,11.93878634114564,703734513607685.2
0.0012832084725857436,9845857902886426.0,-2.9232844467904326e+21,25.5212169708,3.7841796875e-09,12.48355762711371,788706088198902.4
0.0014123384107534091,1.151761125228489e+16,-2.9228774751716754e+21,27.9027657248,3.7841796875e-09,13.089221030932116,879930992460648.5
0.001554381342737841,1.3451941984579704e+16,-2.9224403499862705e+21,30.5944216487,3.7841796875e-09,13.76281980972637,977411763763196.0
0.0017106285679207162,1.5689152320770682e+16,-2.921972095981392e+21,33.6385181244,3.7841796875e-09,14.51224780210467,1081097327906386.1
0.0018825005156218788,1.827567425841974e+16,-2.9214718613953577e+21,37.0834905575,3.7841796875e-09,15.346353940674696,1190880539382128.8
0.002071559658093158,2.1264940624179556e+16,-2.9209389310762575e+21,40.9847754572,3.7841796875e-09,16.275059623466532,1306596787732701.2
0.0022795247148115648,2.4718364647982096e+16,-2.9203727365828615e+21,45.4058421583,3.7841796875e-09,17.30949057187581,1428023808403934.8
0.0025082862772018125,2.8706440400184184e+16,-2.919772862768019e+21,50.4193770441,3.7841796875e-09,18.46212500779349,1554882787765017.5
0.0027599239958310848,3.3309978036993164e+16,-2.91913905051033e+21,56.10864321,3.7841796875e-09,19.746960216336962,1686840793320447.8
0.0030367254863232843,3.8621489651711816e+16,-2.9184711954580195e+21,62.5690420782,3.7841796875e-09,21.17969982751795,1823514495778284.5
0.0033412071258647038,4.474674365214341e+16,-2.9177693428623223e+21,69.9099076206,3.7841796875e-09,22.77796445394519,1964475084795962.8
0.0036761369293602654,5.180650799971049e+16,-2.917033678786038e+21,78.2565686372,3.7841796875e-09,24.56152866499036,2109254220546733.2
0.004044559713205383,5.993850537515298e+16,-2.9162645181572024e+21,87.7527200678,3.7841796875e-09,26.552587662841155,2257350814023807.0
0.004449824775435013,6.9299606401084264e+16,-2.915462290281496e+21,98.5631506915,3.7841796875e-09,28.77605745455629,2408238394384760.5
0.004895616343887605,8.006829047668802e+16,-2.9146275225193147e+21,110.876881907,3.7841796875e-09,31.259912789377886,2561372804082013.0
0.005385987069185457,9.244740759105472e+16,-2.9137608228696317e+21,124.91078073,3.7841796875e-09,34.035567656259694,2716199962484014.5
0.005925394867013094,1.0666727871105381e+17,-2.9128628621849993e+21,140.913719857,3.7841796875e-09,37.13830371870352,2872163454717353.0
0.006518743444623495,1.2298917702680502e+17,-2.9119343566776676e+21,159.17136882,3.7841796875e-09,40.607752710335625,3028711731577832.5
0.007171426879994936,1.4170923753205216e+17,-2.91097605127788e+21,180.011713106,3.7841796875e-09,44.488439534724634,3185304744650430.5
0.007889378658903521,1.6316284817849792e+17,-2.909988704284709e+21,203.81141295,3.7841796875e-09,48.83039361776471,3341419884011309.0
0.008679125615702965,1.8772958224473942e+17,-2.9089730736216327e+21,231.003130527,3.7841796875e-09,53.689836962750064,3496557130076330.0
0.009547847268182353,2.158387386862956e+17,-2.9079299048841953e+21,262.083973994,3.7841796875e-09,59.12995837026681,3650243372990923.5
0.010503441085909681,2.4797556517971226e+17,-2.906859921255297e+21,297.625229445,3.7841796875e-09,65.2217844213711,3802035889997186.0
0.01155459428540974,2.846882474491346e+17,-2.9057638152700046e+21,338.283578066,3.7841796875e-09,72.04515909827828,3951525001989176.5
0.012710862804859807,3.2659575838808954e+17,-2.904642242339383e+21,384.81402587,3.7841796875e-09,79.68984534815,4098335954364748.0
0.01398275817625488,3.743966715951551e+17,-2.9034958158915683e+21,438.093036119,3.662109375e-09,88.2567635001038,4242130084395342.0
0.01538184308478946,4.288790563756865e+17,-2.902325103956307e+21,499.115967306,3.662109375e-09,97.85938324251136,4382605348256232.0
0.0169208364841775,4.909315851839637e+17,-2.9011306270036863e+21,569.030936047,3.662109375e-09,108.62528787832704,4519496286480402.0
0.01861372922350434,5.615560000689673e+17,-2.899912856845185e+21,649.160899171,3.662109375e-09,120.69793182425302,4652573507942481.0
0.020475911236763865,6.418811021403808e+17,-2.8986722164118536e+21,741.028423963,3.662109375e-09,134.23861483161673,4781642770565902.0
0.022524311451349345,7.33178447609072e+17,-2.8974090802377576e+21,846.386087693,3.662109375e-09,149.42869921262846,4906543732712290.0
0.024777551687393373,8.36879955823849e+17,-2.89612377549351e+21,967.251527733,3.662109375e-09,166.4720994886856,5027148443458708.0
0.027256115947041804,9.54597659197694e+17,-2.894816583433399e+21,1105.94785382,3.662109375e-09,185.5980773750909,5143359633346129.0
0.029982536632655078,1.0881458522996312e+18,-2.8934877411383066e+21,1265.15024249,3.662109375e-09,207.0643789213665,5255108860191056.0
0.03298159938682968,1.2395659280252175e+18,-2.892137443454753e+21,1447.93965864,3.662109375e-09,231.16075498542526,5362354557560484.0
0.03628056841642174,1.4111542230360133e+18,-2.8907658450470065e+21,1657.86479295,3.662109375e-09,258.2129110869248,5465080026772799.0
0.03990943434897301,1.6054932330055073e+18,-2.8893730624943827e+21,1899.01346939,3.662109375e-09,288.58693811993476,5563291406966851.0
0.04390118687477941,1.8254866011104957e+18,-2.8879591763790764e+21,2176.09496735,3.662109375e-09,322.69428147553106,5657015651976829.0
0.04829211465316645,2.0743983312016504e+18,-2.8865242333216354e+21,2494.53492207,3.662109375e-09,360.9973129068968,5746298537509195.0
0.05312213520939219,2.355896730782191e+18,-2.885068247931127e+21,2860.58471886,3.662109375e-09,404.0155770492016,5831202717451873.0
0.05843515782124051,2.674103648994899e+18,-2.8835912046457337e+21,3281.4475865,3.662109375e-09,452.33279297997257,5911805844050969.0
0.06427948269427365,3.0336496420259226e+18,-2.8820930594468743e+21,3765.45307984,3.5400390625e-09,506.60470068165955,5988198763146117.0
0.07070824005461011,3.439735773524435e+18,-2.880573741436119e+21,4322.2857555,3.5400390625e-09,567.5678528679837,6060483792630372.0
0.07777987315098023,3.898202841764352e+18,-2.8790331542694826e+21,4962.87777275,3.5400390625e-09,636.049464495785,6128773089769947.0
0.08555866955698735,4.415608919395518e+18,-2.8774711774480936e+21,5699.94635101,3.5400390625e-09,712.9784455568838,6193187110932410.0
0.09411534560359519,4.999316196938777e+18,-2.8758876674679316e+21,6548.14821216,3.5400390625e-09,799.3977576001744,6253853165596728.0
0.1035276892548638,5.657588239000036e+18,-2.8742824588343734e+21,7524.37543933,3.5400390625e-09,896.4782510638618,6310904065197462.0
0.11388126727125929,6.399698893997707e+18,-2.8726553649497265e+21,8648.09631219,3.5400390625e-09,1005.5341591138168,6364476866343158.0
0.12527020308929432,7.236054245679107e+18,-2.871006178883984e+21,9941.74791446,3.5400390625e-09,1128.0404445255263,6414711707187697.0
0.13779803248913286,8.178329159699442e+18,-2.86933467404038e+21,11431.1883286,3.5400390625e-09,1265.6522194797901,6461750735175029.0
0.15157864482895525,9.239620163131046e+18,-2.8676406047285953e+21,13146.2174048,3.5400390625e-09,1420.2264842642537,6505737123975418.0
0.16673731840275988,1.0434616601277151e+19,-2.8659237066590283e+21,15121.1764367,3.5400390625e-09,1593.8464601165776,6546814177140964.0
0.18341185933394497,1.1779792247179452e+19,-2.864183697372078e+21,17395.6386258,3.5400390625e-09,1788.8488241811378,6585124515802369.0
0.20175385435824855,1.3293619797631592e+19,-2.862420276616413e+21,20015.2039905,3.5400390625e-09,2007.8541911951143,6620809347574671.0
0.22193004888498252,1.4996810978571674e+19,-2.860633126689831e+21,23032.4144234,3.5400390625e-09,2253.8012275310543,6654007813723687.0
0.2441238628643899,1.6912585306056524e+19,-2.858821912755442e+21,26507.8069437,3.5400390625e-09,2529.984829119394,6684856411547436.0
0.268537058241738,1.906697091064827e+19,-2.856986283144467e+21,30511.3615863,3.41796875e-09,2840.0988461271986,6713488488841957.0
0.2953915731568209,2.148914123749858e+19,-2.8551258696547377e+21,35124.9693436,3.41796875e-09,3188.2838947215746,6740033807238856.0
0.32493153956341214,2.4211791886733414e+19,-2.8532402878515543e+21,40440.0628848,3.41796875e-09,3579.180860509266,6764618171122100.0
0.35742550261066247,2.727156236457523e+19,-2.851329137375054e+21,46563.4130889,3.41796875e-09,4017.990770119585,6787363118746927.0
0.39316886196263784,3.070950808127008e+19,-2.8493920022562535e+21,53618.0054875,3.41796875e-09,4510.541787770568,6808385672101026.0
0.4324865572498108,3.4571628564387045e+19,-2.8474284512431655e+21,61745.4917541,3.41796875e-09,5063.364183530488,6827798141962126.0
0.475736022065701,3.890945856325626e+19,-2.8454380381383966e+21,71109.0098791,3.41796875e-09,5683.77422046176,6845707984525675.0
0.5233104333631802,4.378072951103996e+19,-2.8434203021509657e+21,81896.4282086,3.41796875e-09,6379.968020162876,6862217705900392.0
0.5756422857904073,4.925010969501717e+19,-2.841374768266459e+21,94324.0767551,3.41796875e-09,7161.126591794351,6877424810706587.0
0.6332073234603572,5.539003247394399e+19,-2.8393009476410336e+21,108641.038635,3.41796875e-09,8037.533350022,6891421790964311.0
0.6965288648973021,6.228162298649516e+19,-2.837198338024663e+21,125134.085345,3.41796875e-09,9020.705604240284,6904296151425115.0
0.7661825604779415,7.0015735029979415e+19,-2.8350664242185665e+21,144133.352037,3.41796875e-09,10123.54167683337,6916130467482822.0
0.8428016256166448,7.869411116950936e+19,-2.8329046785699537e+21,166018.863308,3.41796875e-09,11360.485504385653,6927002471780799.0
0.9270825972692185,8.843068068159463e+19,-2.830712561505972e+21,191228.036419,3.41796875e-09,12747.710795192515,6936985165598837.0
1.0197916660870494,9.935301166186267e+19,-2.828489522109561e+21,220264.307832,3.41796875e-09,14303.327062068878,6946146951036155.0
1.1217716417866634,1.1160393555559652e+20,-2.8262349987436073e+21,253713.466992,3.2958984375e-09,16047.610124635892,6954551779910513.0
1.233949615056239,1.253433645256432e+20,-2.8239484197370614e+21,292252.282317,3.2958984375e-09,18003.259983685253,6962259315214617.0
1.3573453856527722,1.4075032448078198e+20,-2.821629204155494e+21,336638.761012,3.2958984375e-09,20195.689315743675,6969325101028326.0
1.4930807333089586,1.580252292771077e+20,-2.819276762684425e+21,387757.35076,3.2958984375e-09,22653.346222388944,6975800737152329.0
1.6423896157307638,1.7739242460594166e+20,-2.816890498650271e+21,446625.716943,3.2958984375e-09,25408.075299585253,6981734055583396.0
1.8066293863947493,1.9910303342793487e+20,-2.814469809183737e+21,514414.733559,3.2958984375e-09,28495.52157023257,6987169297365132.0
1.9872931341251334,2.2343813854264695e+20,-2.8120140864908684e+21,592471.469153,3.2958984375e-09,31955.58235115171,6992147290177425.0
2.1860232566285562,2.507123420406735e+20,-2.8095227191413787e+21,682345.615775,3.2958984375e-09,35832.91270772134,6996705628863085.0
2.404626391382321,2.8127774602599924e+20,-2.8069950932247464e+21,785819.873819,3.2958984375e-09,40177.49079184917,7000878862327116.0
2.6450898396114626,3.155284041858101e+20,-2.804430593181299e+21,904944.878593,3.2958984375e-09,45045.2500723548,7004698690294460.0
2.909599632663518,3.5390529960260456e+20,-2.8018286021084206e+21,1042079.33678,3.2958984375e-09,50498.786266392206,7008194171948535.0
3.200560405020779,3.9690191073948874e+20,-2.7991885013841997e+21,1199936.13456,3.2958984375e-09,56608.14768540311,7011391945648015.0
3.520617254613766,4.4507043488162834e+20,-2.7965096695426753e+21,1381635.28642,3.2958984375e-09,63451.71874024203,7014316455376929.0
3.8726797891660523,4.990287465854394e+20,-2.793791480460337e+21,1590764.71866,3.2958984375e-09,71117.20752755205,7016990176281978.0
4.259948577173567,5.5946817797092966e+20,-2.7910333010457117e+21,1831450.02701,3.2958984375e-09,79702.74975944345,7019433829566739.0
4.685944243981833,6.271622180880629e+20,-2.788234488731514e+21,2108549.30509,3.173828125e-09,89318.1428125852,7021666576789748.0
5.154539477470926,7.029762401915946e+20,-2.785394389126125e+21,2427539.68308,3.173828125e-09,100086.22536831764,7023706185388046.0
5.669994234308928,7.87878378673854e+20,-2.782512334174418e+21,2794629.30428,3.173828125e-09,112144.4199979202,7025569160627571.0
6.236994466830731,8.829516917507477e+20,-2.779587641108321e+21,3217040.84461,3.173828125e-09,125646.45812389949,7027270843401510.0
6.8606947226047135,9.894077619173479e+20,-2.7766196123486393e+21,3703075.69812,3.173828125e-09,140764.30907107072,7028825477471027.0
7.546765003956095,1.1086019038643525e+21,-2.7736075363748115e+21,4262274.12919,3.173828125e-09,157690.33743011567,7030246253075947.0
8.301442313442614,1.242050169195983e+21,-2.770550689434253e+21,4905599.18746,3.173828125e-09,176639.7157208573,7031545335811045.0
9.131587353877785,1.3914483591800276e+21,-2.767448337844056e+21,5645647.92647,3.173828125e-09,197853.12240371603,7032733890045971.0
10.044746898356474,1.5586932812058811e+21,-2.7642997405649847e+21,6496893.97445,3.173828125e-09,221599.75869785802,7033822105064176.0
11.049222397283032,1.7459065119869648e+21,-2.7611041517134555e+21,7475966.08082,3.173828125e-09,248180.72148585462,7034819229850917.0
12.154145446102245,1.9554609612175133e+21,-2.757860822721615e+21,8601967.91583,3.173828125e-09,277932.7738864107,7035733619586359.0
13.369560799803379,2.1900105638032352e+21,-2.754569003947145e+21,9896845.15086,3.173828125e-09,311232.5599297709,7036572793982119.0
14.706517688874627,2.4525234673753035e+21,-2.751227945650665e+21,11385806.7108,3.173828125e-09,348501.31524415786,7037343505166059.0
