t(s),inventory(He/m2),flux_surface_left(He/m2/s),max_ib(He),x_max_ib(m),mean_ib(He),total_bubbles
1e-06,5.173400816850969e-08,-5.969096452764394e+19,7.00006879338,1.66015625e-08,7.000042334959456,7.3905278986872485e-09
2.1000000000000002e-06,1.2569785727880786e-06,-6.049721063061347e+19,7.00020907925,5.9814453125e-09,7.000141775842396,1.7956473069244574e-07
3.3100000000000005e-06,1.1282655580398817e-05,-6.0709826633326125e+19,7.00039966424,4.39453125e-09,7.000178143707869,1.6117669220375865e-06
4.641000000000001e-06,6.463076993651909e-05,-6.081828443195059e+19,7.00063349193,4.2724609375e-09,7.000310819269837,9.232557182833828e-06
6.105100000000001e-06,0.00028445324906831767,-6.088733048622355e+19,7.00086093083,4.150390625e-09,7.000476263897349,4.063341383432605e-05
7.715610000000002e-06,0.0010510275797848954,-6.0936494674859475e+19,7.00108013325,4.0283203125e-09,7.000645793013409,0.00015013294642528735
9.487171000000002e-06,0.0034273941729655627,-6.097395261139182e+19,7.00130012926,4.0283203125e-09,7.000814940547022,0.0004895707431309071
1.1435888100000002e-05,0.010177136807532383,-6.100381067171948e+19,7.00152894568,4.0283203125e-09,7.000986450580659,0.0014536718331583536
1.3579476910000003e-05,0.028098304236239803,-6.102838901042869e+19,7.00177266726,4.150390625e-09,7.001164361583262,0.004013375887933815
1.5937424601000003e-05,0.07320166809879376,-6.1049111755662836e+19,7.00203595127,4.150390625e-09,7.001352463879001,0.010455361085797615
1.8531167061100006e-05,0.1818966110149243,-6.106690863579847e+19,7.00232269923,4.150390625e-09,7.00155407372955,0.025979462430693274
2.1384283767210007e-05,0.43462568124391626,-6.108241630829196e+19,7.00263647231,4.150390625e-09,7.001772140046525,0.06207366828721568
2.452271214393101e-05,1.0048792383302985,-6.109608769119556e+19,7.00298074979,4.150390625e-09,7.00200940002081,0.14351298047776284
2.7974983358324114e-05,2.259235162895667,-6.110825519951228e+19,7.00335910763,4.2724609375e-09,7.002268513440444,0.3226433203124384
3.177248169415653e-05,4.95873254948875,-6.1119169236194e+19,7.00377535831,4.2724609375e-09,7.002552166430985,0.7081321826147972
3.5949729863572185e-05,10.65931816809016,-6.112902263165226e+19,7.00423351442,4.2724609375e-09,7.002863150350484,1.5221371515101898
4.0544702849929404e-05,22.49958292244629,-6.113796672296563e+19,7.00473799271,4.2724609375e-09,7.003204423434618,3.212755413387134
4.559917313492235e-05,46.735316255276295,-6.114612225877601e+19,7.00529363191,4.2724609375e-09,7.003579161441062,6.673061755706636
5.115909044841459e-05,95.70248085864709,-6.115358699165669e+19,7.00590575416,4.2724609375e-09,7.003990801838516,13.663992938643725
5.727499949325605e-05,193.49165865141697,-6.116044108680893e+19,7.006580228,4.2724609375e-09,7.0044430847154295,27.62413175626196
6.400249944258165e-05,386.7328765947316,-6.116675105388199e+19,7.00732355694,4.39453125e-09,7.0049400926165,55.20859157701637
7.140274938683982e-05,764.9467872304714,-6.11725726571135e+19,7.00814293623,4.39453125e-09,7.005486290872762,109.19253217683084
7.954302432552381e-05,1498.6864855493066,-6.117795310440072e+19,7.00904626029,4.39453125e-09,7.006086569576711,213.91207069253403
8.84973267580762e-05,2910.553906775183,-6.1182932718328455e+19,7.01004231971,4.39453125e-09,7.006746288100302,415.393077913815
9.834705943388383e-05,5606.5824538083025,-6.118754622906323e+19,7.01114086011,4.39453125e-09,7.007471322899065,800.0863928600139
0.00010918176537727222,10717.775253897684,-6.119182378724665e+19,7.01235269369,4.39453125e-09,7.008268119269075,1529.304397534307
0.00012109994191499945,20341.39341947315,-6.119579176675733e+19,7.01368982472,4.39453125e-09,7.009143747690838,2902.1224491471758
0.0001342099361064994,38342.15932062627,-6.119947340769286e+19,7.01516559081,4.39453125e-09,7.010105965408407,5469.5548840241345
0.00014863092971714937,71797.76330532132,-6.120288933622914e+19,7.01679482224,4.39453125e-09,7.011163283930688,10240.492254670347
0.00016449402268886432,133590.10131647188,-6.120605798831154e+19,7.01859402201,4.39453125e-09,7.012325043214999,19050.757130223345
0.00018194342495775077,247019.91412883293,-6.120899595726265e+19,7.02058159947,4.5166015625e-09,7.013601493387573,35220.12397791968
0.00020113776745352586,453969.37112589,-6.1211718280540275e+19,7.02277806655,4.5166015625e-09,7.0150038849735665,64714.05840534336
0.00022225154419887848,829239.6701313787,-6.121423867744178e+19,7.02520623157,4.5166015625e-09,7.0165445687495405,118183.48219787085
0.00024547669861876636,1505552.6693665553,-6.1216569747067945e+19,7.02789161387,4.5166015625e-09,7.018237106489282,214520.06344648488
0.000271024368480643,2716819.537200937,-6.121872313395384e+19,7.03086273397,4.5166015625e-09,7.020096394052963,387006.01597187127
0.00029912680532870735,4872433.822510934,-6.122070966722916e+19,7.03415149634,4.5166015625e-09,7.022138798474981,693867.4899973631
0.0003300394858615781,8683785.345170075,-6.122253947784215e+19,7.03779362506,4.5166015625e-09,7.024382310938496,1236234.7265249966
0.0003640434344477359,15377848.39240449,-6.122422209724747e+19,7.04182916001,4.5166015625e-09,7.026846717791212,2188442.271477112
0.00040144777789250956,27054528.623633433,-6.122576654002028e+19,7.04630302258,4.5166015625e-09,7.029553792062957,3848683.6325487117
0.00044259255568176054,47278896.238053866,-6.1227181372153315e+19,7.05126566116,4.5166015625e-09,7.0325275082861625,6722888.205178995
0.00048785181124993667,82053024.79489098,-6.12284747663197e+19,7.05677378811,4.5166015625e-09,7.035794283800974,11662226.25124326
0.0005376369923749304,141394319.07577005,-6.122965454513513e+19,7.06289122196,4.5166015625e-09,7.039383250130476,20086180.003503755
0.0005924006916124235,241871221.74909723,-6.1230728213377294e+19,7.06968985045,4.5166015625e-09,7.043326558442246,34340480.98468279
0.0006526407607736659,410631241.06148916,-6.123170298016525e+19,7.07725073253,4.5166015625e-09,7.047659723552545,58264907.383255504
0.0007189048368510325,691724581.1777989,-6.1232585772209865e+19,7.08566536023,4.5166015625e-09,7.052422011383594,98083265.58751856
0.0007917953205361358,1155910473.2144113,-6.123338323936363e+19,7.09503710443,4.5166015625e-09,7.057656875236892,163781052.78398263
0.0008719748525897494,1915671120.1313791,-6.1234101753798345e+19,7.10548287247,4.5166015625e-09,7.063412446710614,271210429.03610915
0.0009601723378487245,3147895195.7913985,-6.123474740419345e+19,7.11713500931,4.5166015625e-09,7.06974208755984,445263088.3565813
0.001057189571633597,5127678673.237147,-6.123532598633102e+19,7.13014347919,4.5166015625e-09,7.0767050092905075,724585618.0956221
0.001163908528796957,8277974639.758488,-6.123584299145646e+19,7.14467836909,4.5166015625e-09,7.084366967800113,1168484732.2821593
0.0012812993816766526,13241446647.552021,-6.1236303593693086e+19,7.16093276168,4.5166015625e-09,7.092801040947743,1866885391.4140942
0.001410429319844318,20982863069.015682,-6.123671263769334e+19,7.17912603037,4.5166015625e-09,7.102088497566357,2954463757.5560756
0.00155247225182875,32932698522.600323,-6.123707462758018e+19,7.19950761561,4.5166015625e-09,7.112319767130992,4630373717.840431
0.0017087194770116251,51185214670.83914,-6.123739371808389e+19,7.22236134719,4.5166015625e-09,7.123595520076337,7185306145.833873
0.0018805914247127878,78767035901.69347,-6.1237673708614205e+19,7.24801038271,4.5166015625e-09,7.136027869607498,11037938379.860317
0.0020696505671840668,119994886691.26552,-6.123791804083064e+19,7.27682283738,4.5166015625e-09,7.149741706755898,16783107923.728287
0.0022776156239024737,180943393173.41312,-6.123812980008471e+19,7.3092181837,4.5166015625e-09,7.164876181374452,25254224719.72187
0.0025063771862927214,270045262930.37698,-6.1238311720909775e+19,7.34567450204,4.5166015625e-09,7.181586342716422,37602453001.80195
0.0027580149049219937,398846283731.9066,-6.123846619652602e+19,7.38673666265,4.5166015625e-09,7.200044954171841,55394971319.0065
0.0030348163954141932,582935973576.801,-6.123859529211036e+19,7.43302551748,4.5166015625e-09,7.220444497632978,80734084136.77307
0.0033392980349556127,843071022582.658,-6.123870076136012e+19,7.48524817488,4.5166015625e-09,7.242999383830412,116398052506.36449
0.0036742278384511743,1206502760193.9272,-6.1238784065656095e+19,7.54420942282,4.5166015625e-09,7.267948385866381,166003209728.36755
0.004042650622296292,1708511964225.2246,-6.123884639492488e+19,7.61082435718,4.5166015625e-09,7.2955573141592485,234185256952.10938
0.004447915684525921,2394145044320.4146,-6.123888868912404e+19,7.68613226309,4.5166015625e-09,7.326121952251066,326795685346.8397
0.004893707252978514,3320136108429.501,-6.1238911659157955e+19,7.77131179201,4.5166015625e-09,7.359971274633266,451107210142.6017
0.005384077978276365,4556991227802.046,-6.123891580600062e+19,7.86769747937,4.5166015625e-09,7.397470970207649,616020156909.6702
0.005923485776104002,6191206220020.099,-6.123890143687738e+19,7.97679766312,4.5166015625e-09,7.4390272985831025,832260182886.992
0.006516834353714403,8327589375419.006,-6.1238868677555945e+19,8.10031389726,4.5166015625e-09,7.4850913115337026,1112556818456.858
0.007169517789085845,11091667368676.318,-6.123881748011438e+19,8.2401620141,4.5166015625e-09,7.53616347906068,1471792298494.406
0.00788746956799443,14632167087824.027,-6.123874762596052e+19,8.39849507765,4.5166015625e-09,7.592798769036469,1927111139504.2092
0.008677216524793875,19123588314359.105,-6.123865872433734e+19,8.57772859141,4.5166015625e-09,7.655612241705963,2497982879824.859
0.009545938177273262,24768911082455.547,-6.123855020699318e+19,8.78056847399,4.5166015625e-09,7.725285235562421,3206213146465.4336
0.01050153199500059,31802515143002.453,-6.123842132007097e+19,9.01004249052,4.5166015625e-09,7.802572239253517,4075901403771.565
0.01155268519450065,40493424603957.12,-6.123827111451625e+19,9.26953601427,4.5166015625e-09,7.888308564878386,5133346936280.935
0.012708953713950717,51149025669311.8,-6.123809843639185e+19,9.56283318103,4.5166015625e-09,7.983418960679792,6406907356513.886
0.01398084908534579,64119436972733.77,-6.123790191841515e+19,9.89416467456,4.5166015625e-09,8.088927324851994,7926815806063.259
0.015379933993880369,79802738667578.55,-6.1237679973825946e+19,10.268263538,4.5166015625e-09,8.20596770596609,9724963773566.709
0.016918927393268408,98651287725335.06,-6.1237430793401434e+19,10.6904305421,4.5166015625e-09,8.335796798399679,11834656015640.197
0.01861182013259525,121179363567945.89,-6.123715234612045e+19,11.1666107624,4.5166015625e-09,8.479808162427405,14290342569879.25
0.020474002145854774,147972402001962.25,-6.123684238369678e+19,11.7034831392,4.5166015625e-09,8.639548418019048,17127330601370.79
0.022522402360440254,179698088848645.34,-6.123649844899628e+19,12.3085649342,4.5166015625e-09,8.816735679244639,20381476249953.85
0.024775642596484283,217119600220813.2,-6.12361178882445e+19,12.9903331753,4.5166015625e-09,9.013280513526478,24088854207408.258
0.027254206856132713,261111296290824.72,-6.1235697866913145e+19,13.7583654159,4.5166015625e-09,9.231309728465929,28285400877153.383
0.029980627541745988,312677201144156.4,-6.123523538922443e+19,14.6235024398,4.5166015625e-09,9.47319331072798,33006525982116.61
0.032979690295920586,372972633595962.25,-6.123472732129424e+19,15.598035928,4.5166015625e-09,9.7415748688283,38286687585743.8
0.03627865932551265,443329392542900.06,-6.123417041800654e+19,16.6959245709,4.5166015625e-09,10.039405966862365,44158926733934.51
0.03990752525806392,525284944826913.4,-6.123356135373566e+19,17.9330426733,4.5166015625e-09,10.369984781092002,50654360244065.73
0.043899277783870316,620616112738439.6,-6.123289675698182e+19,19.3274659455,4.5166015625e-09,10.736999567091768,57801633394918.74
0.048290205562257354,731377811311070.2,-6.1232173248840835e+19,20.8997999279,4.5166015625e-09,11.144577492407533,65626338172921.86
0.0531202261184831,859947441987113.6,-6.1231387484994994e+19,22.6735573478,4.5166015625e-09,11.597339468293658,74150407025520.97
0.058433248730331414,1009075609216463.6,-6.123053620061007e+19,24.6755916795,4.5166015625e-09,12.10046170353791,83391496451861.17
0.06427757360336456,1181943890973402.0,-6.122961625719385e+19,26.9365952843,4.5166015625e-09,12.65974480302262,93362378891808.55
0.07070633096370102,1382230464644619.0,-6.122862469016818e+19,29.491671768,4.5166015625e-09,13.281691343148427,104070364905570.9
0.07777796406007113,1614184468490667.0,-6.122755875567418e+19,32.3809936386,4.5166015625e-09,13.973592975971693,115516780205802.45
0.08555676046607825,1882710068621877.0,-6.122641597500696e+19,35.6505580106,4.5166015625e-09,14.74362824536824,127696523358375.95
0.09411343651268608,2193461305185388.2,-6.122519417505574e+19,39.3530550283,4.5166015625e-09,15.600972444535854,140597729595608.3
0.1035257801639547,2552948912447761.0,-6.122389152319491e+19,43.5488659114,4.5166015625e-09,16.555921008705063,154201563966476.2
0.11387935818035018,2968660448996384.0,-6.122250655520581e+19,48.3072101254,4.5166015625e-09,17.620028124895352,168482162908807.25
0.1252682939983852,3449197193050584.5,-6.122103819455606e+19,53.7074928507,4.5166015625e-09,18.806273033201652,183406738111330.06
0.13779612339822375,4004420283278386.0,-6.121948576280243e+19,59.8407407668,4.5166015625e-09,20.129204449140765,198935844354709.12
0.15157673573804614,4645625457077782.0,-6.12178489830261e+19,66.8114230813,4.5166015625e-09,21.605166859181445,215023817559805.28
0.16673540931185077,5385732025008045.0,-6.1216127967029354e+19,74.7394341181,4.5166015625e-09,23.252512042272386,231619362897950.2
0.18340995024303586,6239496412098055.0,-6.1214323197317456e+19,83.7624035257,4.5166015625e-09,25.091847794719587,248666278511824.7
0.20175194526733947,7223751571871390.0,-6.121243549891864e+19,94.0383563684,4.5166015625e-09,27.146317769483236,266104288368422.16
0.22192813979407344,8357675453170498.0,-6.121046600347555e+19,105.74877724,4.5166015625e-09,29.44191641572817,283869953815429.75
0.2441219537734808,9663092120887278.0,-6.1208416107248665e+19,119.102141043,4.5166015625e-09,32.007843504926505,301897630791652.0
0.26853514915082893,1.11648096004329e+16,-6.120628742486373e+19,134.337982865,4.5166015625e-09,34.876903283295796,320120439298871.4
0.29538966406591183,1.2890999035709598e+16,-6.1204081740700975e+19,151.731590712,4.5166015625e-09,38.08595390412258,338471213512502.4
0.324929630472503,1.4873620326091752e+16,-6.120180095980587e+19,171.599417862,4.5166015625e-09,41.67641347558622,356883404441810.3
0.35742359351975334,1.714890004539518e+16,-6.119944706014408e+19,194.305326673,4.5166015625e-09,45.69482981880631,375291911872649.6
0.3931669528717287,1.9757868152318132e+16,-6.11970220479249e+19,220.267793051,4.5166015625e-09,50.19352187695384,393633827902199.5
0.43248464815890164,2.2746960786056044e+16,-6.119452791749306e+19,249.968220816,4.5166015625e-09,55.23130166200606,411849080169403.5
0.47573411297479185,2.6168697312742016e+16,-6.119196661685326e+19,283.960538485,4.5166015625e-09,60.87428668786404,429880968411561.44
0.523308524272271,3.008244075950224e+16,-6.118934001926713e+19,322.882277872,4.5166015625e-09,67.19681403742437,447676592862694.7
0.5756403766994982,3.4555251856152052e+16,-6.1186649900752765e+19,367.467602606,4.39453125e-09,74.28246856785248,465187177033406.6
0.6332054143694481,3.966284811413092e+16,-6.118389792298409e+19,418.562219714,4.39453125e-09,82.22523929345573,482368290502350.25
0.696526955806393,4.549068072326507e+16,-6.118108562111726e+19,477.138952357,4.39453125e-09,91.13081972340629,499179979521034.9
0.7661806513870324,5.213514355518089e+16,-6.117821439627937e+19,544.31913472,4.39453125e-09,101.11806990751478,515586814531419.06
0.8427997165257357,5.970493024447927e+16,-6.117528551258265e+19,621.394816411,4.39453125e-09,112.32066021083153,531557864175745.7
0.9270806881783094,6.832255719361719e+16,-6.117230009846719e+19,709.855076265,4.39453125e-09,124.8889194721208,547066605127198.4
1.0197897569961403,7.812607243569083e+16,-6.116925915200485e+19,811.416439517,4.39453125e-09,138.99191329617852,562090776239705.56
1.1217697326957543,8.927097261463742e+16,-6.116616354965443e+19,928.058049446,4.39453125e-09,154.81978188160576,576612184371277.5
1.2339477059653299,1.0193235293127107e+17,-6.1163014057882665e+19,1062.06235228,4.39453125e-09,172.58637105386128,590616468199912.0
1.357343476561863,1.1630731778508416e+17,-6.1159811347036865e+19,1216.06218052,4.39453125e-09,192.53219502305717,604092825987651.0
1.4930788242180495,1.3261768304715066e+17,-6.115655600680096e+19,1393.0952669,4.39453125e-09,214.92777462704356,617033714126884.5
1.6423877066398544,1.5111300446337904e+17,-6.115324856243853e+19,1596.667389,4.39453125e-09,240.07740008411508,629434525742256.9
1.80662747730384,1.720739706508102e+17,-6.1149889490808635e+19,1830.82553242,4.39453125e-09,268.32337206885893,641293262394792.2
1.987291225034224,1.958162035668171e+17,-6.114647923486641e+19,2100.24266426,4.39453125e-09,300.05077875893153,652610216099925.0
2.186021347537647,2.2269451427707014e+17,-6.114301821511233e+19,2410.31592683,4.39453125e-09,335.6928691294451,663387681884889.4
2.404624482291412,2.5310766742684634e+17,-6.113950683635726e+19,2767.28029122,4.39453125e-09,375.73708439146225,673629721263141.9
2.6450879305205532,2.8750371416644394e+17,-6.113594548833273e+19,3178.33995577,4.39453125e-09,420.731810849061,683341993053116.0
2.9095977235726087,3.26385960555076e+17,-6.11323345391684e+19,3651.82004512,4.39453125e-09,471.29391988972384,692531659715545.9
3.2005584959298696,3.703196468395983e+17,-6.112867432155934e+19,4197.34147854,4.39453125e-09,528.1171659536957,701207365927710.0
3.520615345522857,4.1993942263641683e+17,-6.112496511244597e+19,4826.02225665,4.39453125e-09,591.9815227670509,709379273652880.6
3.872677880075143,4.75957714068791e+17,-6.112120710805717e+19,5550.70889219,4.39453125e-09,663.7635531066628,717059127216506.6
4.259946668082658,5.3917409141394214e+17,-6.1117400397011984e+19,6386.24231577,4.39453125e-09,744.4479284422866,724260315348223.4
4.685942334890924,6.104857598304169e+17,-6.111354493466993e+19,7349.78435126,4.2724609375e-09,835.1402416476191,730997896384457.4
5.154537568380016,6.908993112586349e+17,-6.1109640521936855e+19,8461.13063098,4.2724609375e-09,937.0812873597293,737288558183971.6
5.669992325218018,7.815438925869034e+17,-6.110568679124832e+19,9743.11764652,4.2724609375e-09,1051.663018491625,743150494830419.2
6.236992557739821,8.836859636391278e+17,-6.1101683201521115e+19,11222.1156344,4.2724609375e-09,1180.4464214077784,748603195886908.9
6.860692813513804,9.987458385232716e+17,-6.109762904263684e+19,12928.5520361,4.2724609375e-09,1325.181583955684,753667158233517.4
7.546763094865185,1.1283162255609267e+18,-6.109352344871122e+19,14897.5310515,4.2724609375e-09,1487.8302582297686,758363542695660.5
8.301440404351705,1.2741830047481452e+18,-6.1089365418247774e+19,17169.5496557,4.2724609375e-09,1670.5912433398048,762713805563131.0
9.131585444786877,1.4383485080161725e+18,-6.108515383848858e+19,19791.3254991,4.2724609375e-09,1875.9289340992939,766739337440189.0
10.044744989265565,1.6230575971682045e+18,-6.108088751099552e+19,22816.7542338,4.2724609375e-09,2106.6054027417667,770461138595666.6
11.049220488192123,1.8308266288603128e+18,-6.107656517617317e+19,26308.0083488,4.2724609375e-09,2365.71610314136,773899550512090.5
12.154143537011336,2.0644768536583526e+18,-6.107218553734007e+19,30336.8383664,4.2724609375e-09,2656.7311261125215,777074064201299.6
13.36955889071247,2.3271703319724785e+18,-6.1067747262699135e+19,34986.0276937,4.2724609375e-09,2983.5395206590274,780003186101062.6
14.706515779783718,2.6224511252413563e+18,-6.106324901164765e+19,40351.1036682,4.2724609375e-09,3350.500145562504,782704375857020.6
16.177168357762092,2.9542911467224125e+18,-6.10586894355274e+19,46542.3034625,4.2724609375e-09,3762.498220529715,785194031615112.2
17.794886193538304,3.327141476460535e+18,-6.105406718030298e+19,53686.8414275,4.2724609375e-09,4225.008563361342,787487510750397.1
19.574375812892136,3.7459897918724326e+18,-6.104938088665e+19,61931.5237348,4.2724609375e-09,4744.166309591062,789599172419259.1
