t(s),inventory(He/m2),flux_surface_left(He/m2/s),max_ib(He),x_max_ib(m),mean_ib(He),total_bubbles
0.01,17664240.595864408,-9.405889015125518e+21,492.290361285,3e-09,359.50873891309345,49134.384463834984
0.01909090909090909,98684636.18019296,-9.405891135149778e+21,1560.25048955,3e-09,1052.0090759570605,93805.87908941285
0.02909090909090909,290578918.17232186,-9.40589113513984e+21,3121.25726395,3e-09,2032.8090298243844,142944.52351848572
0.040090909090909094,651731591.1545162,-9.405891135124784e+21,5179.67192717,3e-09,3308.332025379661,196997.03238816367
0.05219090909090909,1258232525.7815633,-9.405891135105949e+21,7778.58626596,3e-09,4906.254686349587,256454.7921416059
0.0655009090909091,2209959543.6773734,-9.405891135082839e+21,10982.648124,3e-09,6866.249378505953,321858.32786607073
0.0801419090909091,3637893190.241747,-9.405891135054854e+21,14873.7446603,3e-09,9237.868736501568,393802.21715722675
0.09624700909090911,5713323820.320064,-9.405891135021276e+21,19550.4790041,3e-09,12080.42846035304,472940.49536990485
0.11396261909090911,8659558300.439335,-9.405891134981263e+21,25129.184459,3e-09,15463.701268346182,559992.6013939003
0.13344979009090913,12766843281.19186,-9.405891134933848e+21,31745.7911178,3e-09,19469.07339308156,655749.9180073268
0.15488567819090915,18411397969.80987,-9.405891134877894e+21,39558.3184879,3e-09,24191.052468506874,761082.9662652649
0.17846515510090916,26079683530.430435,-9.405891134812089e+21,48749.9319478,3e-09,29739.10003195867,876949.3193272258
0.20440257970190917,36399337435.06836,-9.405891134734919e+21,59532.5719201,3e-09,36239.79869142758,1004402.3076673027
0.23293374676300918,50178585020.418396,-9.405891134644626e+21,72151.2023485,3e-09,43839.3840158331,1144600.5948052513
0.2643180305302192,68456428529.386856,-9.405891134539192e+21,86888.7500378,3e-09,52706.684905397604,1298818.7106105841
0.29884074267415023,92566533617.74553,-9.405891134416278e+21,104071.826765,3e-09,63036.527707578956,1468458.6379369393
0.33681572603247434,124218519879.47124,-9.405891134273187e+21,124077.345367,3e-09,75053.67050028792,1655062.5579197318
0.3785882077266309,165601360122.49274,-9.405891134106805e+21,147340.161124,3e-09,89017.34572053884,1860326.869803351
0.4245379375902031,219514859697.5137,-9.405891133913546e+21,174361.891704,3e-09,105226.50226228323,2086117.6127508262
0.47508264044013254,289536794206.6051,-9.405891133689272e+21,205721.093656,3e-09,124025.85274454772,2334487.429834127
0.530681813575055,380235322809.7855,-9.405891133429208e+21,242085.00142,3e-09,145812.84824936072,2607694.228423061
0.5918409040234696,497438881088.1274,-9.405891133127848e+21,284223.066974,3e-09,171045.72184338002,2908221.706612534
0.6591159035167257,648579039150.7115,-9.405891132778847e+21,333022.575056,3e-09,200252.76404962552,3238801.9322918523
0.7331184029593074,843125973983.225,-9.405891132374877e+21,389506.651332,3e-09,234043.01857279282,3602440.1801201054
0.8145211523461473,1093141486747.4108,-9.405891131907504e+21,454855.029714,3e-09,273118.6155520679,4002442.2521979725
0.9040641766716712,1413981196165.672,-9.405891131366986e+21,530428.001354,3e-09,318288.9929993886,4442444.530805337
1.0025615034297475,1825186039300.1155,-9.4058911307421e+21,617794.032724,3e-09,370487.29557231365,4926447.0364109045
1.1109085628636315,2351613994318.6836,-9.405891130019907e+21,718761.615056,3e-09,430789.284216754,5458849.7914805515
1.230090328240904,3024876619427.1304,-9.40589112918548e+21,835415.993745,3e-09,500435.1414044726,6044492.820663645
1.3611902701559035,3885162355943.493,-9.405891128221603e+21,970161.52586,3e-09,580854.6157306591,6688700.150994468
1.505400206262403,4983550558378.9,-9.405891127108444e+21,1125770.52876,3e-09,673696.0177352953,7397328.212109171
1.6640311359795525,6384948142359.438,-9.405891125823116e+21,1305439.61532,3e-09,780859.6573606853,8176819.076478656
1.838525158668417,8171816170625.279,-9.405891124339232e+21,1512854.66392,3e-09,904536.4040621648,9034259.023657456
2.0304685836261678,10448898643259.1,-9.405891122626365e+21,1752265.74791,3e-09,1047252.1551018908,9977442.960948111
2.2416063510796937,13349222777219.215,-9.405891120649435e+21,2028573.55216,3e-09,1211919.1181131208,11014945.28612032
2.4738578952785724,17041712395587.605,-9.405891118367987e+21,2347429.0393,3e-09,1401894.953089444,12156197.836386895
2.729334593897339,21740847813605.348,-9.405891115735369e+21,2715348.39845,3e-09,1621050.979372828,13411575.63225847
3.0103589623779823,27718922027222.402,-9.405891112697777e+21,3139845.62155,3e-09,1873850.8382664141,14792491.195759453
3.31948576770669,35321590704136.695,-9.40589110919318e+21,3629585.41238,3e-09,2165441.2153661177,16311498.300435169
3.6595252535682685,44987600850767.9,-9.405891105150035e+21,4194559.54868,3e-09,2501756.4729545405,17982406.09632086
4.033568688016005,57273820743424.695,-9.405891100485828e+21,4846290.29696,3e-09,2889639.3268670123,19820404.64735846
4.445016465908514,72886995295776.45,-9.405891095105431e+21,5598065.03221,3e-09,3336980.029931911,21842203.022492666
4.8976090215902754,92724033651230.38,-9.405891088899112e+21,6465206.85252,3e-09,3852876.902107832,24066181.19579759
5.395460832840213,117923121214838.78,-9.405891081740333e+21,7465386.71384,3e-09,4447821.48351976,26512557.136515502
5.943097825215143,149928564205359.0,-9.405891073483156e+21,8618983.45907,3e-09,5133912.089654874,29203570.60797235
6.545498516827567,190573056171687.16,-9.40589106395928e+21,9949499.0942,3e-09,5925100.128305593,32163685.346223094
7.208139277601233,242182047260748.06,-9.405891052974605e+21,11484037.7937,3e-09,6837474.20731354,35419811.45635677
7.937044114452266,307706154785480.94,-9.405891040305267e+21,13253858.4199,3e-09,7889587.834468732,39001550.04817197
8.738839434988401,390889149434062.2,-9.405891025693073e+21,15295011.8439,3e-09,9102837.40185168,42941462.335089974
9.62081428757815,496481076149651.4,-9.405891008840267e+21,17649076.0903,3e-09,10501898.174699489,47275365.64254092
10.590986625426876,630508637587525.0,-9.405890989403399e+21,20364004.3256,3e-09,12115227.190557625,52042659.01665726
11.658176197060474,800618227415121.8,-9.405890966986355e+21,23495103.0207,3e-09,13975643.342305208,57286681.393163264
12.832084725857431,1016511136184957.0,-9.405890941132278e+21,27106160.2776,3e-09,16120996.496599643,63055105.582298644
14.123384107534084,1290495699615134.2,-9.40589091131423e+21,31270747.3815,3e-09,18594939.319662064,69400371.65115026
15.543813427378403,1638187816723055.0,-9.405890876924426e+21,36073720.1825,3e-09,21447817.582367796,76380163.64284101
17.106285679207154,2079399712602280.5,-9.405890837261855e+21,41612950.9987,3e-09,24737697.139285184,84057933.96589245
18.82500515621878,2639267538910724.0,-9.405890791517956e+21,48001326.4449,3e-09,28531548.57119946,92503480.22030862
20.715596580931567,3349682004946535.0,-9.405890738760095e+21,55369052.0339,3e-09,32906613.704957776,101793579.70345837
22.795247148115635,4251103488316695.0,-9.405890677912538e+21,63866310.6684,3e-09,37951981.94416018,112012687.3629805
25.08286277201811,5394864969795041.0,-9.405890607734476e+21,73666329.3842,3e-09,43770408.63542307,123253703.54045579
27.599239958310832,6846093919549604.0,-9.40589052679468e+21,84968917.0554,3e-09,50480412.645477526,135618818.4837062
30.367254863232827,8687419514512818.0,-9.405890433442258e+21,98004545.4052,3e-09,58218696.03555271,149220441.30304167
33.41207125864702,1.1023676298010846e+16,-9.405890325772953e+21,113039056.786,3e-09,67142935.30822623,164182221.8138897
36.761369293602634,1.3987872151814554e+16,-9.4058902015902e+21,130379095.011,3e-09,77435001.30305003,180640174.5519645
40.44559713205381,1.774876047198675e+16,-9.405890058360285e+21,150378370.313,3e-09,89304673.58636793,198743915.17507365
44.4982477543501,2.252044782761781e+16,-9.405889893160544e+21,173444886.583,3e-09,102993925.29731631,218658020.48622975
48.956163438876025,2.857458434393864e+16,-9.405889702619637e+21,200049278.71,3e-09,118781866.08313231,240563524.43511906
53.85987069185454,3.6255831197266264e+16,-9.405889482848662e+21,230734430.59,3e-09,136990444.2214897,264659563.68932492
59.25394867013091,4.600148632511002e+16,-9.405889229361658e+21,266126570.545,3e-09,157991024.56128356,291165187.7241063
65.18743444623492,5.8366386382383416e+16,-9.405888936983912e+21,306948071.154,3e-09,182211976.8340962,320321349.8722202
71.71426879994932,7.405450361798554e+16,-9.40588859974619e+21,354032215.362,3e-09,210147429.56338662,352393097.41663307
78.89378658903517,9.395903784090064e+16,-9.405888210762698e+21,408340230.982,3e-09,242367368.65057185,387671980.613711
86.79125615702961,1.1921328773596197e+17,-9.405887762090315e+21,470980942.137,3e-09,279529287.2349705,426478702.51875275
95.47847268182349,1.5125520006925558e+17,-9.405887244566211e+21,543233439.731,3e-09,322391625.171533,469166033.66721493
105.03441085909675,1.9190927480550938e+17,-9.405886647620483e+21,626573234.854,3e-09,371829273.09652996,516122018.0630806
115.54594285409735,2.4349049327512826e+17,-9.405885959060066e+21,722702430.319,3e-09,428851458.306965,567773499.5618032
127.108628048598,3.0893619165632e+17,-9.405885164819399e+21,833584527.753,3e-09,494622378.42992455,624590000.632348
139.82758176254873,3.919733947199085e+17,-9.405884248672832e+21,961484582.617,3e-09,570485005.1019324,687087988.6665417
153.81843084789452,4.973311458024301e+17,-9.405883191902824e+21,1109015528.95,3e-09,657988544.7678593,755835568.5020174
169.20836484177488,6.310099335213334e+17,-9.405881972917223e+21,1279191622.0,3e-09,758920118.573572,831457643.667884
186.1372922350433,8.006235699956727e+17,-9.405880566807717e+21,1475490092.65,3e-09,875341309.70035,914641593.0829827
204.75911236763858,1.0158330047627392e+18,-9.405878944840496e+21,1701922275.69,3e-09,1009630326.1424707,1006143514.571286
225.24311451349337,1.288896798532804e+18,-9.405877073868683e+21,1963115667.92,3e-09,1164530641.9049728,1106795091.646871
247.77551687393364,1.6353696300244767e+18,-9.405874915654537e+21,2264408596.12,3e-09,1343207112.2540364,1217511145.6044648
272.5611594704179,2.0749886462791685e+18,-9.405872426087584e+21,2611959433.1,3e-09,1549310711.7081149,1339297941.076967
299.82536632655064,2.6327981728298107e+18,-9.405869554282671e+21,3012872597.91,3e-09,1787053220.0539994,1473262319.9382138
329.81599386829663,3.3405768848872136e+18,-9.405866241539592e+21,3475343920.58,3e-09,2061293385.4323862,1620621745.7911646
362.80568416421727,4.238648778238581e+18,-9.405862420142952e+21,4008828348.22,3e-09,2377636328.6453457,1782715349.3459382
399.09434348972997,5.378181150730207e+18,-9.405858011977854e+21,4624233427.36,3e-09,2742548224.12242,1961016073.819871
439.0118687477939,6.824100557747153e+18,-9.405852926933179e+21,5334142525.97,3e-09,3163488606.017159,2157144029.147845
482.92114653166425,8.658792918355622e+18,-9.405847061059793e+21,6153072368.12,3e-09,3649063009.12872,2372881174.34373
531.2213520939216,1.0986798627512097e+19,-9.405840294446306e+21,7097770158.36,3e-09,4209199071.1851873,2610187458.8741026
584.3515782124048,1.3940770217015144e+19,-9.405832488769005e+21,8187556385.0,3e-09,4855349704.070496,2871218566.466564
642.7948269427362,1.768903202931908e+19,-9.405823484466164e+21,9444720329.13,3e-09,5600727496.7383585,3158345418.451526
707.0824005461009,2.244517261509308e+19,-9.405813097479308e+21,10894976388.5,3e-09,6460575153.288244,3474175608.6018353
777.7987315098019,2.8480216325947548e+19,-9.405801115495203e+21,12567990574.3,3e-09,7452477509.213712,3821576957.5603065
855.5866955698731,3.6138067427487683e+19,-9.405787293612395e+21,14497987983.0,3e-09,8596721522.468132,4203703392.3965454
941.1534560359514,4.585510634714063e+19,-9.405771349344511e+21,16724453707.5,3e-09,9916711621.40801,4624023375.66714
1035.2768925486375,5.818505397231664e+19,-9.405752956859332e+21,19292941579.2,3e-09,11439448929.321764,5086351128.608639
1138.8126727125923,7.383051963369716e+19,-9.405731740337264e+21,22256007351.9,3e-09,13196084198.777086,5594880914.7898
1252.7020308929425,9.368302853663436e+19,-9.405707266315624e+21,25674285503.0,3e-09,15222555805.824268,6154224673.677366
1377.9803248913277,1.188738064696457e+20,-9.405679034864781e+21,29617731796.4,3e-09,17560325905.823193,6769453318.0745735
1515.7864482895513,1.5083821089650524e+20,-9.405646469419623e+21,34167057173.3,3e-09,20257229876.115715,7446142035.1630125
1667.3731840275975,1.913974725677635e+20,-9.405608905063176e+21,39415382500.6,3e-09,23368456508.403976,8190419957.7294035
1834.1185933394484,2.4286239430044516e+20,-9.405565575029646e+21,45470148285.4,3e-09,26957679114.982533,9009024599.80196
2017.5385435824842,3.081648989178387e+20,-9.405515595159586e+21,52455318759.2,3e-09,31098360835.14559,9909361478.935839
2219.3004888498235,3.910248965336784e+20,-9.405457946001298e+21,60513925867.7,3e-09,35875261037.73987,10899569375.18392
2441.238628643897,4.961619409443424e+20,-9.405391452208197e+21,69811005793.7,3e-09,41386173890.40185,11988591703.554668
2685.3705824173776,6.295636777497033e+20,-9.405314758831926e+21,80536988860.1,3e-09,47743934995.56095,13186254501.398718
2953.9157315682064,7.988262942729301e+20,-9.405226304054509e+21,92911613181.6,3e-09,55078737582.93009,14503351553.222616
3249.3153956341184,1.01358624192369e+21,-9.405124287839262e+21,107188443491.0,3e-09,63540806232.46536,15951737190.986586
3574.2550261066217,1.2860676388386408e+21,-9.405006635909016e+21,123660089292.0,3e-09,73303483534.1581,17544427315.508907
3931.688619626375,1.6317762621276886e+21,-9.404870958381285e+21,142664231570.0,3e-09,84566793934.59819,19295709180.954205
4324.865572498104,2.0703792531177975e+21,-9.404714502301619e+21,164590584349.0,3e-09,97561558913.7118,21221260465.394386
4757.360220657005,2.6268200428789406e+21,-9.404534097221251e+21,189888937668.0,3e-09,112554149470.73001,23338278110.85767
5233.104333631797,3.3327311138395736e+21,-9.404326092859919e+21,219078451943.0,3e-09,129851975444.77666,25665617349.478943
