t(s),inventory(He/m2),flux_surface_left(He/m2/s),max_ib(He),x_max_ib(m),mean_ib(He),total_bubbles
1e-06,2022.5292132430907,-2.0773812096799849e+21,7.00121577459,3.662109375e-10,5.93961197380171,340.5153774630416
2.1000000000000002e-06,49156.52959959018,-2.1030797889534563e+21,7.00365621639,6.103515625e-10,6.490585512937931,7573.51235903211
3.3100000000000005e-06,420462.7450216073,-2.1095304307506196e+21,7.0076022167,8.544921875e-10,6.7601583505608955,62197.1739739974
4.641000000000001e-06,2235148.221651536,-2.112659242018358e+21,7.0134399896,1.3427734375e-09,6.88885111901809,324458.77883482625
6.105100000000001e-06,8990770.028216727,-2.1145485264907943e+21,7.02149258052,1.8310546875e-09,6.953689544700222,1292949.5874703054
7.715610000000002e-06,30039121.65841024,-2.115821222839514e+21,7.0310493931,2.3193359375e-09,6.988786408130395,4298188.541499032
9.487171000000002e-06,87804075.59759055,-2.1167361868431756e+21,7.04111239851,2.8076171875e-09,7.009581301816301,12526293.913566425
1.1435888100000002e-05,231830811.30668664,-2.1174225971025837e+21,7.05128344945,3.173828125e-09,7.0233504967944835,33008577.802360307
1.3579476910000003e-05,564739999.764208,-2.1179530424466937e+21,7.06172783074,3.41796875e-09,7.033674151067127,80290896.00042495
1.5937424601000003e-05,1288112904.2004538,-2.118371877209798e+21,7.07272769158,3.5400390625e-09,7.042393214569509,182908404.1395996
1.8531167061100006e-05,2780561163.8944044,-2.118707949921032e+21,7.08455499185,3.662109375e-09,7.0504681868572625,394379648.30160254
2.1384283767210007e-05,5726173559.518885,-2.1189809516656992e+21,7.09748110181,3.7841796875e-09,7.0585175597557654,811243084.8322517
2.452271214393101e-05,11319262200.588194,-2.1192048460268728e+21,7.1117453894,3.90625e-09,7.066879275324979,1601734196.890984
2.7974983358324114e-05,21581605589.713634,-2.119389842918276e+21,7.12759733907,3.90625e-09,7.075781854227647,3050066555.799629
3.177248169415653e-05,39840804756.72269,-2.1195435942413344e+21,7.14528327594,3.90625e-09,7.08539758111705,5622945544.0722885
3.5949729863572185e-05,71433185478.87927,-2.1196719497977363e+21,7.16507731949,3.90625e-09,7.095871618220375,10066865541.28984
4.0544702849929404e-05,124711206897.0271,-2.1197794529555605e+21,7.18728158598,4.0283203125e-09,7.107338572013412,17546822292.67968
4.559917313492235e-05,212452600702.2852,-2.1198696761903206e+21,7.21222963805,4.0283203125e-09,7.119932403861933,29839131701.17296
5.115909044841459e-05,353784846360.4311,-2.1199454547733316e+21,7.24029635361,4.0283203125e-09,7.133792765846128,49592812403.27272
5.727499949325605e-05,576751861755.6656,-2.1200090537758226e+21,7.88597795611,2.75e-06,7.149069412200104,80675096086.1313
6.400249944258165e-05,921657222669.744,-2.1200622902849065e+21,14.0933818317,2.875e-06,7.16592559238576,128616633090.5057
7.140274938683982e-05,1445316843989.181,-2.1201066248329114e+21,21.8227145587,3e-06,7.1845409363749715,201170381905.9077
7.954302432552381e-05,2226341096435.6304,-2.1201432311976152e+21,28.1595052318,2.5e-06,7.205114128478285,308994563685.81244
8.84973267580762e-05,3371539870323.242,-2.1201730506736017e+21,299.853982331,3.625e-06,7.227865547887066,466464110045.44073
9.834705943388383e-05,5023503786859.254,-2.1201968349348189e+21,4479.16707685,3.625e-06,7.2530399879098075,692606658067.9276
0.00010918176537727222,7369360089123.414,-2.1202151802966484e+21,5133.18556056,3.625e-06,7.2809070990046845,1012148622268.6211
0.00012109994191499945,10650655768686.58,-2.120228555302671e+21,2718.81123611,4.125e-06,7.311772241027533,1456644903259.4358
0.0001342099361064994,15174231596975.205,-2.1202373229586859e+21,236.14540467,3.375e-06,7.34597146157938,2065653491350.8572
0.00014863092971714937,21323939494698.098,-2.120241758536356e+21,126.217163363,3.375e-06,7.383878131712042,2887905124424.62
0.00016449402268886432,29573005012438.125,-2.1202420636016504e+21,69.693263509,3.375e-06,7.4259068740659275,3982409894705.013
0.00018194342495775077,40496853806966.695,-2.1202383767661104e+21,40.3137183391,3.375e-06,7.472517851577742,5419438884099.315
0.00020113776745352586,54786269430820.79,-2.1202307815770775e+21,24.9021039327,3.375e-06,7.524221460722958,7281320694348.183
0.00022225154419887848,73260845542731.48,-2.120219311936931e+21,16.7393345087,3.375e-06,7.581583482499098,9663000573935.87
0.00024547669861876636,96882835379379.73,-2.1202039554495288e+21,12.3702428512,3.375e-06,7.645230756886403,12672323237871.271
0.000271024368480643,126771676708319.58,-2.120184655114225e+21,10.0544831622,2.875e-06,7.71585746238805,16430017963173.191
0.00029912680532870735,164219667923841.97,-2.1201613098058184e+21,8.96254025748,4.0283203125e-09,7.79423210113907,21069383846016.4
0.0003300394858615781,210709473855470.0,-2.1201337739786408e+21,9.22238208612,4.0283203125e-09,7.881205311480303,26735691499945.594
0.0003640434344477359,267934331720573.3,-2.1201018570068037e+21,9.51629234324,4.0283203125e-09,7.977718652964526,33585332270524.32
0.00040144777789250956,337821995263988.6,-2.1200653225199476e+21,9.84853352169,4.0283203125e-09,8.0848145324793,41784755099433.516
0.00044259255568176054,422563591165473.7,-2.120023888020679e+21,10.2238718571,4.0283203125e-09,8.203647463503545,51509233306937.94
0.00048785181124993667,524648666119671.94,-2.1199772249868e+21,10.6476430374,4.0283203125e-09,8.335496872580423,62941498766018.516
0.0005376369923749304,646907782387939.0,-2.119924959580944e+21,11.1258293016,4.0283203125e-09,8.481781687386075,76270270354872.08
0.0005924006916124235,792564086106863.5,-2.119866674023153e+21,11.6651496968,4.0283203125e-09,8.64407695935688,91688689241590.27
0.0006526407607736659,965295340832496.1,-2.1198019086357375e+21,12.2731653929,4.0283203125e-09,8.824132791386107,109392658026950.0
0.0007189048368510325,1169308003021852.8,-2.119730164546522e+21,12.9584021263,4.0283203125e-09,9.023895858947727,129579066658046.0
0.0007917953205361358,1409425027947224.5,-2.1196509070339382e+21,13.7304920759,4.0283203125e-09,9.245533832962092,152443877596592.12
0.0008719748525897494,1691189241108833.8,-2.1195635695088105e+21,14.6003377834,4.0283203125e-09,9.49146303687377,178180037633678.2
0.0009601723378487245,2020984293981661.8,-2.1194675581448752e+21,15.580301123,4.0283203125e-09,9.76437970086918,206975184895950.25
0.001057189571633597,2406175442156243.5,-2.119362257184465e+21,16.6844208008,4.0283203125e-09,10.06729521477692,239009127161029.8
0.001163908528796957,2855272634075147.5,-2.119247034950434e+21,17.928662431,4.0283203125e-09,10.403575829410741,274451081137250.72
0.0012812993816766526,3378118674080989.5,-2.119121250585421e+21,19.3312058928,4.0283203125e-09,10.77698731482985,313456680925333.75
0.001410429319844318,3986105519643146.0,-2.11898426151323e+21,20.9127754193,4.0283203125e-09,11.191745153545671,356164786184422.94
0.00155247225182875,4692422087035251.0,-2.118835431574943e+21,22.6970187214,4.0283203125e-09,11.652570926931842,402694145048279.06
0.0017087194770116251,5512337273441601.0,-2.1186741397378226e+21,24.7109424144,4.0283203125e-09,12.1647556435315,453139991872564.8
0.0018805914247127878,6463522261449748.0,-2.1184997892127777e+21,26.9854121113,4.0283203125e-09,12.734230858115755,507570683574534.75
0.0020696505671840668,7566416562963829.0,-2.1183118167527438e+21,29.5557267911,4.0283203125e-09,13.367648540148355,566024498642291.2
0.0022776156239024737,8844642695927134.0,-2.11810970184674e+21,32.4622784841,4.0283203125e-09,14.072470770518265,628506737740511.2
0.0025063771862927214,1.0325474883652852e+16,-2.1178929754799418e+21,35.7513850753,3.90625e-09,14.857070477982624,694987272151306.5
0.0027580149049219937,1.204036773966577e+16,-2.1176612281053122e+21,39.4760026054,3.90625e-09,15.730844575034904,765398684236828.6
0.0030348163954141932,1.4025551568688898e+16,-2.1174141164725516e+21,43.6967976407,3.90625e-09,16.704341021364083,839635131415891.5
0.0033392980349556127,1.632270169560919e+16,-2.117151368988081e+21,48.4833370352,3.90625e-09,17.789401536841595,917552041411011.4
0.0036742278384511743,1.8979690148426224e+16,-2.116872789335712e+21,53.9153792939,3.90625e-09,18.9993219101417,998966712506460.8
0.004042650622296292,2.2051429088101388e+16,-2.1165782581682803e+21,60.0843915292,3.90625e-09,20.34903210800436,1083659850309410.4
0.004447915684525921,2.5600816617372612e+16,-2.1162677327796794e+21,67.0952932165,3.90625e-09,21.855298686969324,1171378025258307.8
0.004893707252978514,2.9699797030435936e+16,-2.1159412447756734e+21,75.0684612662,3.90625e-09,23.536952346182197,1261836986947606.2
0.005384077978276365,3.4430549202690584e+16,-2.1155988958704632e+21,84.1420363445,3.90625e-09,25.415143837934362,1354725726607926.0
0.005923485776104002,3.988681867936293e+16,-2.115240852033958e+21,94.4745766361,3.90625e-09,27.513631873300223,1449711141845649.8
0.006516834353714403,4.6175411117211864e+16,-2.114867336293433e+21,106.248112467,3.90625e-09,29.859107125730453,1546443131161855.2
0.007169517789085845,5.341786707796344e+16,-2.114478620546053e+21,119.671663532,3.90625e-09,32.48155694925897,1644559931699398.0
0.00788746956799443,6.175234078064385e+16,-2.1140750167629444e+21,134.98529008,3.90625e-09,35.41467599539357,1743693512505269.0
0.008677216524793875,7.133570831137816e+16,-2.1136568679610783e+21,152.464760437,3.90625e-09,38.69632854086041,1843474846355333.8
0.009545938177273262,8.23459339881969e+16,-2.1132245392899414e+21,172.426929996,3.90625e-09,42.36906903603315,1943538903773530.2
0.01050153199500059,9.498472711679442e+16,-2.112778409531275e+21,195.235941462,3.90625e-09,46.48072816137746,2043529240484676.8
0.01155268519450065,1.0948052529130928e+17,-2.1123188632490772e+21,221.310373018,3.90625e-09,51.085072548303636,2143102081097950.0
0.012708953713950717,1.2609184474075758e+17,-2.1118462837605846e+21,251.131480581,3.90625e-09,56.242547294168396,2241929834387704.5
0.01398084908534579,1.4511104305422054e+17,-2.1113610470334018e+21,285.252702799,3.90625e-09,62.02111149272238,2339704006614715.5
0.015379933993880369,1.6686854500194182e+17,-2.1108635165541922e+21,324.310623335,3.90625e-09,68.49717822593819,2436137507030221.5
0.016918927393268408,1.9173758817910093e+17,-2.1103540391638828e+21,369.037614961,3.90625e-09,75.75667183700448,2530966362825932.0
0.01861182013259525,2.2013955191624864e+17,-2.1098329418145863e+21,420.276424496,3.90625e-09,83.89621684470188,2623950878783286.0
0.020474002145854774,2.5254994041573686e+17,-2.1093005291749856e+21,478.996997499,3.90625e-09,93.02447458534817,2714876289723379.5
0.022522402360440254,2.895050994866587e+17,-2.1087570819926825e+21,546.315887648,3.90625e-09,103.26364560082274,2803552961956943.5
0.024775642596484283,3.3160975567159354e+17,-2.1082028561128544e+21,623.518648824,3.90625e-09,114.75115795280828,2889816203928582.0
0.027254206856132713,3.795454771081553e+17,-2.1076380820504199e+21,712.085669151,3.90625e-09,127.64156405992159,2973525746910911.5
0.029980627541745988,4.3408016728154976e+17,-2.1070629650161695e+21,813.721976918,3.90625e-09,142.10867135446136,3054564954722745.5
0.032979690295920586,4.9607871605025165e+17,-2.1064776853041806e+21,930.399282239,3.7841796875e-09,158.3479350710255,3132839817757902.5
0.03627865932551265,5.665149471327567e+17,-2.1058823989568904e+21,1064.38566265,3.7841796875e-09,176.5791448465369,3208277781756780.5
0.03990752525806392,6.464850178149215e+17,-2.1052772386344143e+21,1218.28209613,3.7841796875e-09,197.04944057061076,3280826456258118.0
0.043899277783870316,7.372224451832494e+17,-2.1046623146249486e+21,1395.09480887,3.7841796875e-09,220.03669712252483,3350452241940060.5
0.048290205562257354,8.401149539431277e+17,-2.1040377159432633e+21,1598.28864865,3.7841796875e-09,245.85332231781646,3417138910399204.0
0.0531202261184831,9.567233641033198e+17,-2.103403511473526e+21,1831.85747579,3.7841796875e-09,274.85051762145497,3480886164533232.0
0.058433248730331414,1.0888027627922464e+18,-2.1027597511211803e+21,2100.4053783,3.7841796875e-09,307.4230570310107,3541708202720837.0
0.06427757360336456,1.2383262335451648e+18,-2.1021064669460803e+21,2409.24037271,3.7841796875e-09,344.0146460653093,3599632305509677.0
0.07070633096370102,1.4075114489319053e+18,-2.1014436742555889e+21,2764.48250529,3.7841796875e-09,385.1239300942863,3654697459561438.5
0.07777796406007113,1.598850468793397e+18,-2.100771372641997e+21,3173.18856038,3.7841796875e-09,431.3112294066599,3706953030165435.0
0.08555676046607825,1.815143127082606e+18,-2.1000895469534456e+21,3643.49591883,3.7841796875e-09,483.2060875377347,3756457490699260.5
0.09411343651268608,2.059534435876434e+18,-2.099398168191623e+21,4184.78849623,3.7841796875e-09,541.515729586769,3803277214953785.5
0.1035257801639547,2.3355564861178153e+18,-2.0986971943329283e+21,4807.88813634,3.7841796875e-09,607.0345386734841,3847485336207666.0
0.11387935818035018,2.6471753817061637e+18,-2.0979865710724841e+21,5525.27534727,3.7841796875e-09,680.6546714631207,3889160675289060.0
0.1252682939983852,2.998843807402498e+18,-2.0972662324922417e+21,6351.3438582,3.7841796875e-09,763.3779479942983,3928386738550242.5
0.13779612339822375,3.3955599024611507e+18,-2.0965361016554822e+21,7302.69415316,3.7841796875e-09,856.3291670584457,3965250785658920.5
0.15157673573804614,3.842933191847557e+18,-2.0957960911302733e+21,8398.47191951,3.7841796875e-09,960.7710163107159,3999842966333553.5
0.16673540931185077,4.3472584163607455e+18,-2.0950461034442198e+21,9660.81576845,3.662109375e-09,1078.1207663714404,4032255524575438.0
0.18340995024303586,4.915598203083066e+18,-2.0942860314726265e+21,11115.4104904,3.662109375e-09,1209.9689606629333,4062582068543184.0
0.20175194526733947,5.555875629590307e+18,-2.0935157587626256e+21,12791.4592546,3.662109375e-09,1358.1003379077151,4090916903937798.0
0.22192813979407344,6.276977860687915e+18,-2.092735159797182e+21,14722.8605387,3.662109375e-09,1524.5172524137542,4117354428590187.0
0.2441219537734808,7.088872176673215e+18,-2.0919441002052943e+21,16948.708889,3.662109375e-09,1711.4658888491576,4141988585843210.5
0.26853514915082893,8.00273586902543e+18,-2.0911424369275833e+21,19514.0898293,3.662109375e-09,1921.4656035652183,4164912374271289.5
0.29538966406591183,9.031101654970896e+18,-2.0903300183490332e+21,22470.9958525,3.662109375e-09,2157.341764109673,4186217411267704.0
0.324929630472503,1.01880204587642e+19,-2.0895066844122257e+21,25879.3818461,3.662109375e-09,2422.2625028797943,4205993548036930.0
0.35742359351975334,1.148924362723947e+19,-2.088672266724564e+21,29808.3810697,3.662109375e-09,2719.7798504558946,4224328533544220.5
0.3931669528717287,1.2952426892965951e+19,-2.0878265886716112e+21,34337.705992,3.662109375e-09,3053.875769646469,4241307724991506.5
0.43248464815890164,1.4597358673282347e+19,-2.0869694655460852e+21,39559.2619634,3.662109375e-09,3429.013673366357,4257013842395011.0
0.47573411297479185,1.6446215601008226e+19,-2.0861007046986928e+21,45579.0059201,3.662109375e-09,3850.196078936762,4271526764826449.0
0.523308524272271,1.852384852660657e+19,-2.085220105713855e+21,52519.0871778,3.662109375e-09,4323.02912914341,4284923365824507.5
0.5756403766994982,2.0858102616284836e+19,-2.0843274606113543e+21,60520.3129711,3.662109375e-09,4853.794797458746,4297277385357393.0
0.6332054143694481,2.3480175600793473e+19,-2.0834225540749837e+21,69744.9878435,3.662109375e-09,5449.531692470139,4308659335486951.5
0.696526955806393,2.6425018710892438e+19,-2.0825051637121483e+21,80380.1834475,3.662109375e-09,6118.125486239201,4319136436532269.0
0.7661806513870324,2.9731785373530542e+19,-2.0815750603541224e+21,92641.561869,3.5400390625e-09,6868.41011473926,4328772580095011.5
0.8427997165257357,3.3444333344216556e+19,-2.0806320084144785e+21,106781.823755,3.5400390625e-09,7710.281037488431,4337628314922073.0
0.9270806881783094,3.761178662287291e+19,-2.0796757663301401e+21,123084.450682,3.5400390625e-09,8654.821999681013,4345760851495173.0
1.0197897569961403,4.228916424996957e+19,-2.0787060871112444e+21,141879.745363,3.5400390625e-09,9714.446914663966,4353224081767748.0
1.1217697326957543,4.753808391483661e+19,-2.077722719016882e+21,163548.326706,3.5400390625e-09,10903.058677878204,4360068611873947.0
1.2339477059653299,5.342754923752004e+19,-2.076725406349703e+21,188528.777743,3.5400390625e-09,12236.226935031782,4366341807911334.5
1.357343476561863,6.003483061971394e+19,-2.0757138903234692e+21,217326.457572,3.5400390625e-09,13731.387056809634,4372087857645934.0
1.4930788242180495,6.744645071248387e+19,-2.0746879099105682e+21,250523.654257,3.5400390625e-09,15408.062820590145,4377347853381909.0
1.6423877066398544,7.575928683593443e+19,-2.0736472025343973e+21,288791.280987,3.5400390625e-09,17288.115569879472,4382159902258370.0
1.80662747730384,8.508180413077771e+19,-2.0725915044505846e+21,332902.345881,3.5400390625e-09,19396.02292186516,4386559269058447.0
1.987291225034224,9.553543485038834e+19,-2.0715205506749337e+21,383747.457468,3.5400390625e-09,21759.19043400923,4390578553008486.5
2.186021347537647,1.072561210437254e+20,-2.0704340743696045e+21,442352.663916,3.5400390625e-09,24408.300035852164,4394247894617081.0
2.404624482291412,1.20396039964197e+20,-2.0693318056856007e+21,509899.966089,3.5400390625e-09,27377.699496112364,4397595202668261.0
2.6450879305205532,1.351255338948303e+20,-2.068213470161277e+21,587750.894187,3.5400390625e-09,30705.837738674956,4400646386684819.0
2.9095977235726087,1.516352687299604e+20,-2.067078786869682e+21,677473.596984,3.5400390625e-09,34435.7514500845,4403425577913106.0
3.2005584959298696,1.7013864861886464e+20,-2.065927466569944e+21,780873.963453,3.5400390625e-09,38615.60913612666,4405955322861713.0
3.520615345522857,1.9087451727675667e+20,-2.0647592101347019e+21,900031.380359,3.5400390625e-09,43299.319582281205,4408256737476902.0
3.872677880075143,2.1411018022501545e+20,-2.063573707493083e+21,1037395.85423,3.41796875e-09,48547.21254703992,4410349616212320.0
4.259946668082658,2.4014478626355233e+20,-2.0623706372534203e+21,1195685.71674,3.41796875e-09,54426.80046468593,4412252497174933.0
4.685942334890924,2.6931311094233117e+20,-2.0611496670666949e+21,1378077.3457,3.41796875e-09,61013.63095599698,4413982690795106.5
5.154537568380016,3.0198978973852185e+20,-2.059910454679659e+21,1588226.95966,3.41796875e-09,68392.24104904963,4415556283964148.0
5.669992325218018,3.385940541293999e+20,-2.0586526495253995e+21,1830342.66031,3.41796875e-09,76657.22521378925,4416988133670314.0
6.236992557739821,3.795950298652895e+20,-2.0573758946265452e+21,2109267.53674,3.41796875e-09,85914.4306381956,4418291863724814.0
6.860692813513804,4.255176635947301e+20,-2.0560798285545844e+21,2430575.3456,3.41796875e-09,96282.2946539575,4419479875547814.0
7.546763094865185,4.769493516926712e+20,-2.0547640872026712e+21,2800680.65325,3.41796875e-09,107893.3408949281,4420563379876689.5
8.301440404351705,5.3454735381624396e+20,-2.0534283051844058e+21,3226965.59325,3.41796875e-09,120895.85268340571,4421552451564093.0
9.131585444786877,5.990470834881599e+20,-2.0520721167537943e+21,3717925.70187,3.41796875e-09,135455.7443257636,4422456105275865.0
10.044744989265565,6.712713790069473e+20,-2.050695156232482e+21,4283337.6546,3.41796875e-09,151758.65349087885,4423282386643558.5
11.049220488192123,7.5214087032503e+20,-2.0492970580091575e+21,4934452.14773,3.41796875e-09,170012.2806645717,4424038471720626.0
12.154143537011336,8.426855713399382e+20,-2.0478774562272811e+21,5684215.65968,3.41796875e-09,190449.00483705988,4424730767487624.0
13.36955889071247,9.440578424434185e+20,-2.0464359842946068e+21,6547525.39479,3.41796875e-09,213328.80810435244,4425365007344066.0
14.706515779783718,1.0575468853269896e+21,-2.044972274334998e+21,7541522.36602,3.41796875e-09,238942.54577265013,4425946337464856.0
16.177168357762092,1.1845949511453494e+21,-2.0434859566704485e+21,8685961.08339,3.2958984375e-09,267615.60288421606,4426479392002657.5
17.794886193538304,1.3268154644293983e+21,-2.0419766593824754e+21,10004180.6312,3.2958984375e-09,299711.9828876113,4426968356907302.5
19.574375812892136,1.4860132888969166e+21,-2.040444007968161e+21,11521833.4055,3.2958984375e-09,335638.87952255894,4427417023351845.5
