t(s),inventory(He/m2),flux_surface_left(He/m2/s),max_ib(He),x_max_ib(m),mean_ib(He),total_bubbles
1e-06,7.61340981840724e-28,-9.766073182447482e+16,7.0,9.65e-05,6.9999999999999725,1.0876299740581814e-28
2.1000000000000002e-06,1.962844160017669e-26,-9.856064553710378e+16,7.0,9.65e-05,7.0000000000000115,2.8040630857395227e-27
3.3100000000000005e-06,1.8144760941668635e-25,-9.879589909001416e+16,7.0,9.65e-05,6.999999999999998,2.592108705952663e-26
4.641000000000001e-06,1.0601363498450142e-24,-9.891607789834864e+16,7.0,9.65e-05,6.999999999999967,1.5144804997785988e-25
6.105100000000001e-06,4.3100899345232685e-24,-9.899272086701517e+16,7.0,9.65e-05,7.000000000000016,6.157271335033227e-25
7.715610000000002e-06,1.5644450031285968e-23,-9.904740164235498e+16,7.0,9.65e-05,7.00000000000003,2.234921433040843e-24
9.487171000000002e-06,5.1278878520971335e-23,-9.908915281786104e+16,7.0,9.65e-05,7.000000000000004,7.325554074424472e-24
1.1435888100000002e-05,1.5438985048254865e-22,-9.912251225551195e+16,7.0,9.65e-05,6.9999999999999885,2.2055692926078415e-23
1.3579476910000003e-05,4.335167702946686e-22,-9.915004461557317e+16,7.0,9.65e-05,6.999999999999992,6.193096718495273e-23
1.5937424601000003e-05,1.1494173021576188e-21,-9.917332461489274e+16,7.0,9.65e-05,7.000000000000014,1.6420247173680236e-22
1.8531167061100006e-05,2.9061266066277058e-21,-9.91933806807132e+16,7.0,9.65e-05,7.000000000000002,4.1516094380395786e-22
2.1384283767210007e-05,7.061827017705203e-21,-9.92109173689417e+16,7.0,9.65e-05,6.99999999999998,1.0088324311007461e-21
2.452271214393101e-05,1.6596002322973685e-20,-9.922643616003848e+16,7.0,9.65e-05,6.99999999999998,2.3708574747105333e-21
2.7974983358324114e-05,3.7911035059410655e-20,-9.924030533242354e+16,7.0,9.65e-05,7.000000000000014,5.415862151344368e-21
3.177248169415653e-05,8.452561932773199e-20,-9.925280249630867e+16,7.0,9.65e-05,6.999999999999994,1.2075088475390294e-20
3.5949729863572185e-05,1.84560665195079e-19,-9.92641416013341e+16,7.0,9.65e-05,6.999999999999996,2.636580931358273e-20
4.0544702849929404e-05,3.957634998056153e-19,-9.927449070568571e+16,7.0,9.65e-05,6.999999999999993,5.653764282937368e-20
4.559917313492235e-05,8.35405400325264e-19,-9.928398402715733e+16,7.0,9.65e-05,6.999999999999982,1.1934362861789517e-19
5.115909044841459e-05,1.739335622020367e-18,-9.929273033371955e+16,7.0,9.65e-05,6.999999999999996,2.4847651743148117e-19
5.727499949325605e-05,3.577868032178717e-18,-9.930081892117731e+16,7.0,9.65e-05,6.999999999999955,5.1112400459696285e-19
6.400249944258165e-05,7.281894692144849e-18,-9.930832395870957e+16,7.0,9.65e-05,6.999999999999993,1.040270670306408e-18
7.140274938683982e-05,1.46818415023009e-17,-9.931530770458906e+16,7.0,9.65e-05,7.000000000000023,2.0974059289001217e-18
7.954302432552381e-05,2.935600135784547e-17,-9.93218229232338e+16,7.0,9.65e-05,6.999999999999982,4.193714479692221e-18
8.84973267580762e-05,5.826351774018182e-17,-9.932791472693298e+16,7.0,9.65e-05,7.000000000000023,8.323359677168804e-18
9.834705943388383e-05,1.1487663541184174e-16,-9.933362199622446e+16,7.0,9.65e-05,6.999999999999969,1.6410947915977464e-17
0.00010918176537727222,2.25169730951823e-16,-9.933897848737522e+16,7.0,9.65e-05,6.9999999999999885,3.216710442168906e-17
0.00012109994191499945,4.390383013938189e-16,-9.934401370487288e+16,7.0,3.53515625e-07,6.99999999999999,6.271975734197422e-17
0.0001342099361064994,8.577438345842492e-16,-9.934875359306704e+16,7.0,3.53515625e-07,7.0000000000000195,1.2253483351203526e-16
0.00014863092971714937,1.6663333605344635e-15,-9.93532211023256e+16,7.0,3.53515625e-07,6.999999999999956,2.380476229334963e-16
0.00016449402268886432,3.221475040325512e-15,-9.935743663530093e+16,7.0,3.525390625e-07,6.9999999999999885,4.602107200465025e-16
0.00018194342495775077,6.20157889733828e-15,-9.936141842016877e+16,7.0,3.525390625e-07,7.000000000000011,8.859398424768958e-16
0.00020113776745352586,1.1893889731796729e-14,-9.9365182818159e+16,7.0,3.525390625e-07,7.000000000000029,1.6991271045423828e-15
0.00022225154419887848,2.273561714593128e-14,-9.936874457954669e+16,7.0,3.525390625e-07,7.000000000000098,3.2479453065615662e-15
0.00024547669861876636,4.333243048217382e-14,-9.937211705804678e+16,7.0,3.525390625e-07,7.000000000000192,6.1903472117389474e-15
0.000271024368480643,8.237297614949757e-14,-9.937531239119886e+16,7.0,3.92578125e-07,7.000000000000334,1.1767568021356234e-14
0.00029912680532870735,1.5622355518989989e-13,-9.937834165267722e+16,7.0,4.0625e-07,7.0000000000006715,2.2317650741412127e-14
0.0003300394858615781,2.956704657965234e-13,-9.938121498128467e+16,7.0,4.1796875e-07,7.000000000001346,4.2238637970923796e-14
0.0003640434344477359,5.58554437773246e-13,-9.938394169051046e+16,7.0,4.51171875e-07,7.000000000002706,7.979349111043287e-14
0.00040144777789250956,1.0534262065595462e-12,-9.938653036186728e+16,7.00000000001,4.638671875e-07,7.000000000005359,1.5048945807981996e-13
0.00044259255568176054,1.9838030878096247e-12,-9.938898892468533e+16,7.00000000002,4.921875e-07,7.000000000010607,2.8340044111523127e-13
0.00048785181124993667,3.730909574987859e-12,-9.939132472459803e+16,7.00000000003,5.146484375e-07,7.000000000020886,5.329870821395324e-13
0.0005376369923749304,7.008267745114102e-12,-9.939354458258478e+16,7.00000000006,5.4296875e-07,7.0000000000412115,1.0011811064389775e-12
0.0005924006916124235,1.3150361473193958e-11,-9.939565484611365e+16,7.00000000012,5.654296875e-07,7.000000000081092,1.878623067577374e-12
0.0006526407607736659,2.4651365993281614e-11,-9.939766143366318e+16,7.00000000025,5.95703125e-07,7.000000000159531,3.5216237132456866e-12
0.0007189048368510325,4.617007551006019e-11,-9.939956987367298e+16,7.00000000048,6.259765625e-07,7.0000000003134515,6.595725072570393e-12
0.0007917953205361358,8.640360956210968e-11,-9.940138533878605e+16,7.00000000095,6.552734375e-07,7.000000000615495,1.234337279350177e-11
0.0008719748525897494,1.6157950704908648e-10,-9.940311267609338e+16,7.00000000185,6.884765625e-07,7.000000001207529,2.308278671731619e-11
0.0009601723378487245,3.019615333451282e-10,-9.940475643396058e+16,7.00000000364,7.2265625e-07,7.000000002367406,4.3137361891857794e-11
0.001057189571633597,5.639656720084458e-10,-9.940632088592142e+16,7.00000000712,7.578125e-07,7.000000004638511,8.056652451924816e-11
0.001163908528796957,1.0527165100646432e-09,-9.940781005203598e+16,7.00000001395,7.94921875e-07,7.000000009082902,1.5038807267124043e-10
0.0012812993816766526,1.964027160507725e-09,-9.94092277180478e+16,7.0000000273,8.33984375e-07,7.0000000177757045,2.8057530793147164e-10
0.001410429319844318,3.662504987308368e-09,-9.941057745262186e+16,7.0000000534,8.75e-07,7.000000034769228,5.232149955880838e-10
0.00155247225182875,6.82682947174339e-09,-9.941186262290146e+16,7.0000001044,9.1796875e-07,7.0000000679713335,9.752613436362251e-10
0.0017087194770116251,1.2719896881580437e-08,-9.941308640858629e+16,7.00000020397,9.62890625e-07,7.0000001328013575,1.8171280914661943e-09
0.0018805914247127878,2.369102124131064e-08,-9.94142518147077e+16,7.0000003982,1.009765625e-06,7.0000002592877495,3.3844314805384313e-09
0.0020696505671840668,4.410928658682941e-08,-9.941536168325069e+16,7.00000077667,1.05859375e-06,7.000000505798581,6.301326199946794e-09
0.0022776156239024737,8.209775861123775e-08,-9.94164187037529e+16,7.00000151272,1.109375e-06,7.0000009854315275,1.172824957912155e-08
0.0025063771862927214,1.5275490688722233e-07,-9.941742542299534e+16,7.0000029399,1.1630859375e-06,7.000001916169731,2.1822123581761377e-08
0.0027580149049219937,2.841370924554192e-07,-9.941838425388229e+16,7.00000569323,1.2177734375e-06,7.000003714315471,4.059099166966727e-08
0.0030348163954141932,5.28365733234497e-07,-9.941929748359802e+16,7.00001095962,1.2744140625e-06,7.0000071623504105,7.548074180213929e-08
0.0033392980349556127,9.822435612173426e-07,-9.942016728111579e+16,7.00002088761,1.330078125e-06,7.000013690826952,1.4032023430247097e-07
0.0036742278384511743,1.8255105441345578e-06,-9.942099570412611e+16,7.00003915626,1.384765625e-06,7.000025792526508,2.6078625968543455e-07
0.004042650622296292,3.391812425771314e-06,-9.942178470544242e+16,7.00007148928,1.4326171875e-06,7.000047466977492,4.845413465797317e-07
0.004447915684525921,6.30031578195653e-06,-9.94225361389362e+16,7.00012543035,1.4697265625e-06,7.000084284871534,9.000342746690447e-07
0.004893707252978514,1.1699718442450384e-05,-9.94232517650474e+16,7.00020833751,1.4853515625e-06,7.0001422952215195,1.6713543738156463e-06
0.005384077978276365,2.1720481301091957e-05,-9.942393325590947e+16,7.0003236309,1.4716796875e-06,7.0002253695704875,3.1028260026469204e-06
0.005923485776104002,4.031264807548429e-05,-9.942458220012653e+16,7.00046819001,1.4208984375e-06,7.000332446288026,5.758676232135282e-06
0.006516834353714403,7.479740259123434e-05,-9.942520010723221e+16,7.00063417698,1.3310546875e-06,7.000457499038736,1.0684644910922623e-05
0.007169517789085845,0.00013873920218265487,-9.942578841186074e+16,7.00081370414,1.2119140625e-06,7.000592692765483,1.9818208010591735e-05
0.00788746956799443,0.00025726010095497364,-9.942634847765336e+16,7.00100191019,1.0751953125e-06,7.0007318551524484,3.674760100483402e-05
0.008677216524793875,0.0004768681011339291,-9.94268816009252e+16,7.00119715314,9.35546875e-07,7.00087192417424,6.81155299366766e-05
0.009545938177273262,0.0008836241890528086,-9.942738901411141e+16,7.00139992242,8.02734375e-07,7.001012567305906,0.00012621376987369707
0.01050153199500059,0.0016367036000312688,-9.942787188901621e+16,7.00161183115,6.806640625e-07,7.0011551657524915,0.00023377622139236708
0.01155268519450065,0.0030303572712082135,-9.942833133988952e+16,7.00183502895,5.72265625e-07,7.001301931287583,0.000432827679901374
0.012708953713950717,0.005608228558469857,-9.942876842637605e+16,7.00207193012,4.78515625e-07,7.00145535926166,0.0008010089718062951
0.01398084908534579,0.010374107377629949,-9.942918415642054e+16,7.00232511014,3.984375e-07,7.001617960826136,0.0014816728698527682
0.015379933993880369,0.019180162243364374,-9.942957948930686e+16,7.00259728064,3.30078125e-07,7.00179216770122,0.002739321845604205
0.016918927393268408,0.035441474896204056,-9.942995533917134e+16,7.00289129837,2.724609375e-07,7.001980326838709,0.005061635886115859
0.01861182013259525,0.0654498621696963,-9.943031257959819e+16,7.00321018909,2.24609375e-07,7.002184735159582,0.00934706304463198
0.020474002145854774,0.1207870701608362,-9.94306520502502e+16,7.00355717801,1.845703125e-07,7.002407688269809,0.01724936272464891
0.022522402360440254,0.22275216917040758,-9.943097456683035e+16,7.00393572542,1.513671875e-07,7.00265153104362,0.031809689255979635
0.024775642596484283,0.4104741188444421,-9.943128093582098e+16,7.00434956482,1.240234375e-07,7.002918705341729,0.0586147199640256
0.027254206856132713,0.7557564730568249,-9.943157197514117e+16,7.00480274452,1.015625e-07,7.003211793703382,0.10791569572925508
0.029980627541745988,1.3902001066610863,-9.943184854085118e+16,7.00529967299,8.30078125e-08,7.003533559420875,0.1984998136820583
0.032979690295920586,2.5546779703373512,-9.94321115582104e+16,7.00584516791,6.73828125e-08,7.003886983983507,0.3647514553246491
0.03627865932551265,4.68942110793407,-9.943236205299702e+16,7.00644450637,5.46875e-08,7.004275303005902,0.6695083938122183
0.03990752525806392,8.597731939787383,-9.943260117660533e+16,7.00710348569,4.4921875e-08,7.004702041693498,1.2274229351386865
0.043899277783870316,15.742868188303175,-9.943283021691736e+16,7.00782849078,3.61328125e-08,7.005171050779518,2.2473210253090605
0.048290205562257354,28.785177076950124,-9.943305058714546e+16,7.00862655412,2.9296875e-08,7.00568654374779,4.108830290535821
0.0531202261184831,52.55144979209352,-9.94332637872384e+16,7.00950544362,2.34375e-08,7.006253136064981,7.500649601365777
0.058433248730331414,95.77949397352917,-9.943347133686534e+16,7.01047375154,1.953125e-08,7.006875887100341,13.669357858879623
0.06427757360336456,174.24850971441083,-9.943367468457122e+16,7.01154098247,1.5625e-08,7.007560345435901,24.865787966835097
0.07070633096370102,316.37781812367757,-9.943387510308506e+16,7.0127176681,1.26953125e-08,7.008312598405446,45.143222948653985
0.07777796406007113,573.2047582519899,-9.943407358454214e+16,7.01401548509,9.765625e-09,7.009139327009749,81.77962107888808
0.08555676046607825,1036.0979565939037,-9.943427075054422e+16,7.01544741912,7.8125e-09,7.010047867914524,147.80183760744288
0.09411343651268608,1868.0683292972255,-9.943446679022402e+16,7.01702788994,6.7138671875e-09,7.01104628511306,266.4464408491779
0.1035257801639547,3358.8533272146055,-9.943466143529915e+16,7.01877289914,5.859375e-09,7.012143455015961,479.00522126539414
0.11387935818035018,6021.30812710714,-9.943485397558534e+16,7.0207002239,5.615234375e-09,7.013349170066569,858.549600354489
0.1252682939983852,10759.060419340638,-9.943504331290149e+16,7.02282981633,5.615234375e-09,7.01467426711479,1533.7933038145125
0.13779612339822375,19156.10138249371,-9.943522804684749e+16,7.02518401317,5.4931640625e-09,7.01613078718182,2730.29422676828
0.15157673573804614,33973.030204999835,-9.943540658317234e+16,7.02778783597,5.4931640625e-09,7.017732172340345,4841.026897393002
0.16673540931185077,59989.67937861355,-9.943557725438667e+16,7.03066937881,5.4931640625e-09,7.019493502912043,8546.154983080585
0.18340995024303586,105421.03711703951,-9.943573844246507e+16,7.03386029569,5.4931640625e-09,7.021431774353159,15014.179515651747
0.20175194526733947,184268.64919740925,-9.943588869433032e+16,7.0373963701,5.4931640625e-09,7.023566209181729,26235.767373634146
0.22192813979407344,320174.72598398925,-9.94360268218727e+16,7.04131819493,5.4931640625e-09,7.025918596833794,45570.51459837222
0.2441219537734808,552649.4669923652,-9.94361519794041e+16,7.04567196831,5.4931640625e-09,7.028513655087023,78629.63552647784
0.26853514915082893,946979.4355303444,-9.943626371287682e+16,7.05051041165,5.4931640625e-09,7.031379411344386,134679.0409293649
0.29538966406591183,1609739.054989957,-9.943636197720098e+16,7.05589381293,5.4931640625e-09,7.034547609785317,228833.34427230974
0.324929630472503,2710972.249041539,-9.943644714618562e+16,7.06509665298,5.4931640625e-09,7.040521562723212,385052.7585051467
0.35742359351975334,4524355.925514281,-9.943651988135806e+16,7.07399957309,5.4931640625e-09,7.0459250513229605,642123.7655181666
0.3931669528717287,7477802.143465279,-9.94365811539231e+16,7.08315747137,5.4931640625e-09,7.051290393235729,1060487.0493830037
0.43248464815890164,12232771.798291396,-9.943663213203568e+16,7.09294204322,5.4931640625e-09,7.056916064965216,1733444.4232690039
0.47573411297479185,19796532.320036624,-9.94366740854292e+16,7.10363016626,5.4931640625e-09,7.062989933008404,2802854.3871369367
0.523308524272271,31679527.645467266,-9.943670829885152e+16,7.11545435735,5.4931640625e-09,7.069649267199482,4481060.721420563
0.5756403766994982,50111215.83702733,-9.94367360006721e+16,7.12863239989,5.4931640625e-09,7.077011007617018,7080844.693203446
0.6332054143694481,78329131.90517348,-9.943675831146166e+16,7.14338564742,5.4931640625e-09,7.0851877926155,11055336.03312697
0.696526955806393,120955962.04606305,-9.943677621397685e+16,7.15995132216,5.4931640625e-09,7.094297127315378,17049745.71481406
0.7661806513870324,184477125.56256172,-9.943679054262224e+16,7.1785918084,5.4931640625e-09,7.104467281604033,25966355.85052773
0.8427997165257357,277825712.258602,-9.9436801988036e+16,7.19960264419,5.4931640625e-09,7.115841695942089,39043267.70184279
0.9270806881783094,413071729.5691583,-9.943681111138518e+16,7.22332017944,5.4931640625e-09,7.128582788947188,57945841.66289305
1.0197897569961403,606198132.5778425,-9.943681836323994e+16,7.25012943932,5.4931640625e-09,7.142875618716912,84867519.04084465
1.1217697326957543,877927737.9433746,-9.94368241031146e+16,7.28047246865,5.4931640625e-09,7.158931622229822,122633904.64818029
1.2339477059653299,1254545080.9600027,-9.943682861733646e+16,7.31485725833,5.4931640625e-09,7.176992534160085,174800945.5198382
1.357343476561863,1768639583.6541328,-9.943683213429451e+16,7.35386722332,5.4931640625e-09,7.197334513929752,245735359.4210607
1.4930788242180495,2459686676.343105,-9.943683483702464e+16,7.39817108875,5.4931640625e-09,7.220272460763064,340663969.3598428
1.6423877066398544,3374388039.7160983,-9.943683687345275e+16,7.44853293399,5.4931640625e-09,7.24616445801193,465679196.11389846
1.80662747730384,4566716135.280666,-9.94368383646164e+16,7.50582204382,5.4931640625e-09,7.275416255653212,627691389.0297608
1.987291225034224,6097653567.047123,-9.943683941105112e+16,7.57102213232,5.4931640625e-09,7.308485675175842,834325171.8695356
2.186021347537647,8034681014.865551,-9.943684009744379e+16,7.64523946401,5.4931640625e-09,7.345886810264022,1093765970.3167646
2.404624482291412,10451138547.361822,-9.94368404957e+16,7.72970943549,5.4931640625e-09,7.388193909106313,1414572854.4672167
2.6450879305205532,13425648911.08993,-9.943684066670355e+16,7.82580133984,5.4931640625e-09,7.436044870000605,1805482503.9118998
2.9095977235726087,17041831289.559654,-9.943684066118e+16,7.93502134938,5.4931640625e-09,7.49014436845216,2275234021.0341434
3.2005584959298696,21388537465.89908,-9.94368405201278e+16,8.05901422243,5.4931640625e-09,7.551266760741905,2832443634.105925
3.520615345522857,26560806144.83138,-9.94368402752223e+16,8.1995648187,5.4931640625e-09,7.62025906321828,3485551596.6689324
3.872677880075143,32661664366.06171,-9.94368399494558e+16,8.35860108461,5.4931640625e-09,7.698044461296091,4242852133.457617
4.259946668082658,39735939331.661476,-9.943683955811234e+16,8.51402237604,5.4931640625e-09,7.77215602013317,5112601860.890157
4.685942334890924,47959376220.42881,-9.943683911049941e+16,8.69330222019,5.4931640625e-09,7.858066213090115,6103203373.437752
5.154537568380016,57473931041.69353,-9.943683860985768e+16,8.8983139126,5.4931640625e-09,7.9566099674653135,7223419430.72555
5.669992325218018,68444468206.48478,-9.943683805580686e+16,9.13121979128,5.4931640625e-09,8.068790180054732,8482618419.756766
6.236992557739821,81064561070.50992,-9.94368374451489e+16,9.39448484842,5.4931640625e-09,8.195774570782756,9891018886.67097
6.860692813513804,95563143641.28244,-9.943683677265414e+16,9.69090362848,5.4931640625e-09,8.338899471991144,11459922734.68001
7.546763094865185,112212184596.05824,-9.943683603160931e+16,10.0236380377,5.4931640625e-09,8.499679312475175,13201931563.625212
8.301440404351705,131335643034.26431,-9.943683521413973e+16,10.3962640164,5.4931640625e-09,8.679820836453294,15131146772.371634
9.131585444786877,153320048282.65414,-9.943683431135347e+16,10.812825648,5.4931640625e-09,8.881241414315966,17263357804.406994
10.044744989265565,178627125799.19568,-9.943683331335802e+16,11.277896064,5.4931640625e-09,9.106091141168038,19616224242.65382
11.049220488192123,207808975303.59518,-9.943683220919346e+16,11.79664528,5.4931640625e-09,9.356778745301265,22209457010.827744
12.154143537011336,241526405633.72607,-9.943683098671086e+16,12.3749157556,5.4931640625e-09,9.636001604342788,25065002638.11435
13.36955889071247,280571153534.95056,-9.943682963241651e+16,13.0193069625,5.4931640625e-09,9.946780367194084,28207233212.9012
14.706515779783718,325892869629.8632,-9.94368281312898e+16,13.7372705875,5.4931640625e-09,10.292498799881855,31663143806.594765
16.177168357762092,378631952032.4686,-9.943682646658126e+16,14.5372182478,5.4931640625e-09,10.676949527978492,35462558949.09681
17.794886193538304,440159553802.8498,-9.943682461958963e+16,15.4286438046,5.4931640625e-09,11.10438636780904,39638350037.85948
19.574375812892136,512126392646.21027,-9.943682256941674e+16,16.4222625734,5.4931640625e-09,11.57958396111101,44226666032.746994
21.53181439418135,596522359883.3309,-9.943682029269848e+16,17.5301699813,5.4931640625e-09,12.10790548797807,49267180064.76162
23.684996833599484,695749374000.7965,-9.943681776330688e+16,18.7660225314,5.4931640625e-09,12.695379353135836,54803354405.39177
26.053497516959435,812710469589.5594,-9.943681495202282e+16,20.1452443236,5.4931640625e-09,13.348785925902076,60882725522.81856
