t(s),inventory(He/m2),flux_surface_left(He/m2/s),max_ib(He),x_max_ib(m),mean_ib(He),total_bubbles
1e-06,4.953612418942137e-27,-9.446670002630835e+16,7.0,9.65e-05,7.0,7.076589169917338e-28
2.1000000000000002e-06,1.1255582474377345e-25,-9.693290478888661e+16,7.0,9.65e-05,7.000000000000005,1.6079403534824767e-26
3.3100000000000005e-06,7.403100163580551e-25,-9.760371339224974e+16,7.0,9.65e-05,7.0000000000000115,1.0575857376543627e-25
4.641000000000001e-06,4.136858110655249e-24,-9.794682673771853e+16,7.0,9.65e-05,6.999999999999989,5.90979730093608e-25
6.105100000000001e-06,1.8657003713659037e-23,-9.816570524874558e+16,7.0,9.65e-05,6.999999999999999,2.6652862448084343e-24
7.715610000000002e-06,7.097616031823726e-23,-9.832188252704243e+16,7.0,9.65e-05,7.0000000000000115,1.0139451474033878e-23
9.487171000000002e-06,2.375383522228182e-22,-9.844113870136011e+16,7.0,9.65e-05,6.999999999999983,3.393405031754554e-23
1.1435888100000002e-05,7.210548417875233e-22,-9.853642909543864e+16,7.0,9.65e-05,7.000000000000005,1.0300783454107469e-22
1.3579476910000003e-05,2.0286325123307764e-21,-9.861507683666843e+16,7.0,9.65e-05,7.000000000000012,2.8980464461868183e-22
1.5937424601000003e-05,5.372712728267094e-21,-9.868157883121498e+16,7.0,9.65e-05,7.000000000000008,7.675303897524412e-22
1.8531167061100006e-05,1.3549423558846016e-20,-9.873887216000384e+16,7.0,9.65e-05,6.999999999999994,1.935631936978004e-21
2.1384283767210007e-05,3.282086090332711e-20,-9.878896906720805e+16,7.0,9.65e-05,6.9999999999999805,4.688694414761029e-21
2.452271214393101e-05,7.687578947277497e-20,-9.883330186317979e+16,7.0,9.65e-05,6.999999999999987,1.0982255638967874e-20
2.7974983358324114e-05,1.7503708257311727e-19,-9.887292244814776e+16,7.0,9.65e-05,6.999999999999974,2.5005297510445417e-20
3.177248169415653e-05,3.89049830322005e-19,-9.89086237765867e+16,7.0,9.65e-05,7.000000000000002,5.557854718885784e-20
3.5949729863572185e-05,8.470413711868356e-19,-9.894101698819813e+16,7.0,9.65e-05,6.999999999999996,1.2100591016954802e-19
4.0544702849929404e-05,1.8115624930958307e-18,-9.897058215699662e+16,7.0,9.65e-05,6.999999999999991,2.587946418708333e-19
4.559917313492235e-05,3.814783507199806e-18,-9.899770270938718e+16,7.0,9.65e-05,6.999999999999993,5.449690724571157e-19
5.115909044841459e-05,7.925183233599487e-18,-9.90226893853743e+16,7.0,9.65e-05,6.999999999999992,1.1321690333713565e-18
5.727499949325605e-05,1.6270286829093427e-17,-9.904579730502344e+16,7.0,9.65e-05,7.000000000000007,2.3243266898704873e-18
6.400249944258165e-05,3.3055566046261626e-17,-9.90672383706995e+16,7.0,9.65e-05,6.999999999999991,4.722223720894524e-18
7.140274938683982e-05,6.654064446600023e-17,-9.908719044169443e+16,7.0,9.65e-05,6.9999999999999805,9.505806352285774e-18
7.954302432552381e-05,1.3285548516421484e-16,-9.910580422989248e+16,7.0,9.65e-05,6.999999999999998,1.8979355023459267e-17
8.84973267580762e-05,2.6334108011587017e-16,-9.91232085569934e+16,7.0,1.201171875e-07,6.999999999999998,3.762015430226718e-17
9.834705943388383e-05,5.186208799283614e-16,-9.913951441448928e+16,7.0,1.123046875e-07,7.000000000000029,7.408869713262276e-17
0.00010918176537727222,1.015491086533827e-15,-9.915481813582682e+16,7.0,1.11328125e-07,7.00000000000001,1.4507015521911795e-16
0.00012109994191499945,1.9781655616722514e-15,-9.916920390135234e+16,7.0,1.025390625e-07,7.000000000000039,2.825950802388915e-16
0.0001342099361064994,3.835691508455342e-15,-9.918274573566978e+16,7.0,9.765625e-08,7.000000000000001,5.479559297793345e-16
0.00014863092971714937,7.406723314738328e-15,-9.919550911451046e+16,7.0,9.66796875e-08,7.000000000000053,1.0581033306768959e-15
0.00016449402268886432,1.4249293291558807e-14,-9.920755226809586e+16,7.0,9.47265625e-08,7.000000000000178,2.0356133273654923e-15
0.00018194342495775077,2.7321725345405523e-14,-9.92189272463486e+16,7.0,9.47265625e-08,7.000000000000334,3.903103620772031e-15
0.00020113776745352586,5.222944878881233e-14,-9.922968079557874e+16,7.0,1.025390625e-07,7.000000000000682,7.461349826972463e-15
0.00022225154419887848,9.95736736627183e-14,-9.923985508470114e+16,7.0,1.025390625e-07,7.000000000001343,1.4224810523242742e-14
0.00024547669861876636,1.8936984504915358e-13,-9.924948831043952e+16,7.0,1.103515625e-07,7.000000000002642,2.705283500701173e-14
0.000271024368480643,3.5934994820560806e-13,-9.925861520453579e+16,7.00000000001,1.142578125e-07,7.000000000005249,5.133570688647694e-14
0.00029912680532870735,6.805457238162835e-13,-9.92672674611374e+16,7.00000000002,1.201171875e-07,7.000000000010445,9.722081768789543e-14
0.0003300394858615781,1.286509289475628e-12,-9.927547409886813e+16,7.00000000003,1.259765625e-07,7.000000000020746,1.8378704135311645e-13
0.0003640434344477359,2.4280569672951146e-12,-9.928326176927906e+16,7.00000000006,1.328125e-07,7.000000000041113,3.46865281040122e-13
0.00040144777789250956,4.5757469955456656e-12,-9.929065502116482e+16,7.00000000012,1.396484375e-07,7.0000000000812586,6.536781422132212e-13
0.00044259255568176054,8.611571433684294e-12,-9.929767652841586e+16,7.00000000024,1.46484375e-07,7.000000000160445,1.2302244904981302e-12
0.00048785181124993667,1.6187288906500535e-11,-9.930434728752166e+16,7.00000000048,1.54296875e-07,7.000000000316511,2.3124698436812304e-12
0.0005376369923749304,3.039385116091349e-11,-9.931068678949099e+16,7.00000000095,1.611328125e-07,7.000000000623495,4.3419787368866126e-12
0.0005924006916124235,5.7011304711124525e-11,-9.931671316982624e+16,7.00000000187,1.69921875e-07,7.000000001227091,8.144472100161503e-12
0.0006526407607736659,1.0684131202456289e-10,-9.932244333932995e+16,7.00000000368,1.77734375e-07,7.00000000241266,1.5263044569676907e-11
0.0007189048368510325,2.0005796513398926e-10,-9.932789309796965e+16,7.00000000724,1.865234375e-07,7.000000004739533,2.857970928550497e-11
0.0007917953205361358,3.7431976450589606e-10,-9.933307723376411e+16,7.0000000142,1.962890625e-07,7.000000009303151,5.347425200120243e-11
0.0008719748525897494,6.998881337173945e-10,-9.933800960859683e+16,7.00000002786,2.05078125e-07,7.0000000182474205,9.998401884184915e-11
0.0009601723378487245,1.3077937510159679e-09,-9.934270323289874e+16,7.00000005461,2.158203125e-07,7.000000035765567,1.8682767776199572e-10
0.001057189571633597,2.4422933253233595e-09,-9.934717033113562e+16,7.00000010695,2.265625e-07,7.000000070053488,3.488990429831092e-10
0.001163908528796957,4.558533231292723e-09,-9.93514223999248e+16,7.00000020932,2.373046875e-07,7.000000137114917,6.512190202858401e-10
0.0012812993816766526,8.504323866373882e-09,-9.93554702603589e+16,7.00000040934,2.490234375e-07,7.000000268160721,1.2149033629406458e-09
0.001410429319844318,1.5930941429714372e-08,-9.935932408037808e+16,7.00000080059,2.6171875e-07,7.000000524569566,2.27584860512478e-09
0.00155247225182875,2.9805349814461457e-08,-9.936299349036738e+16,7.00000156256,2.744140625e-07,7.000001024380515,4.257906493249287e-09
0.0017087194770116251,5.570343026050216e-08,-9.936648756172213e+16,7.00000303974,2.880859375e-07,7.000001994801408,7.957630626658483e-09
0.0018805914247127878,1.040084061187505e-07,-9.936981485790949e+16,7.00000588189,3.017578125e-07,7.00000386653917,1.4858335524059173e-08
0.0020696505671840668,1.9404682488331795e-07,-9.937298347153992e+16,7.00001128101,3.1640625e-07,7.000007436908378,2.772094553216941e-08
0.0022776156239024737,3.6177715587431144e-07,-9.937600105731797e+16,7.00002132166,3.30078125e-07,7.0000141225427415,5.168234656973758e-08
0.0025063771862927214,6.740783063455346e-07,-9.937887486186163e+16,7.00003935917,3.427734375e-07,7.000026268801207,9.629653953584008e-08
0.0027580149049219937,1.2552958730434054e-06,-9.938161175071322e+16,7.00007007242,3.525390625e-07,7.000047316298668,1.7932676970920153e-07
0.0030348163954141932,2.336547810605414e-06,-9.938421823277568e+16,7.00011851217,3.59375e-07,7.000081358057455,3.337886648868626e-07
0.0033392980349556127,4.347276049486163e-06,-9.93867004824099e+16,7.00018780847,3.603515625e-07,7.000131642134624,6.210277565809465e-07
0.0036742278384511743,8.085190953041194e-06,-9.938906435944787e+16,7.00027693726,3.525390625e-07,7.000198558372457,1.1549945170299565e-06
0.004042650622296292,1.5031639432074334e-05,-9.939131542737965e+16,7.00038108881,3.349609375e-07,7.000278934839461,2.1472914968093423e-06
0.004447915684525921,2.7936661134360726e-05,-9.939345896996147e+16,7.00049463578,3.095703125e-07,7.000367653700906,3.990741989042728e-06
0.004893707252978514,5.190402097650041e-05,-9.939550000646992e+16,7.0006137339,2.783203125e-07,7.0004601249421645,7.414372776950748e-06
0.005384077978276365,9.640282961173595e-05,-9.939744330579765e+16,7.00073687316,2.44140625e-07,7.000553688826897,1.3770743557841416e-05
0.005923485776104002,0.00017899573781590762,-9.939929339955486e+16,7.00086419608,2.109375e-07,7.000647640341463,2.5568454093366844e-05
0.006516834353714403,0.0003322459523537763,-9.940105459430779e+16,7.00099672171,1.796875e-07,7.000742612818817,4.745867270500879e-05
0.007169517789085845,0.0006165084166028839,-9.940273098306155e+16,7.00113586464,1.5234375e-07,7.000839945488142,8.806206418134261e-05
0.00788746956799443,0.0011436078849956003,-9.940432645606962e+16,7.00128320939,1.26953125e-07,7.0009412577329195,0.00016335058999851246
0.008677216524793875,0.0021206499430744905,-9.940584471103562e+16,7.00144041894,1.064453125e-07,7.001048224327904,0.0003029046330098764
0.009545938177273262,0.0039310434900033595,-9.940728926276059e+16,7.0016092185,8.7890625e-08,7.001162483947552,0.0005614843962008536
0.01050153199500059,0.0072842604855033475,-9.940866345227789e+16,7.00179139464,7.2265625e-08,7.00128562081996,0.0010404175575756966
0.01155268519450065,0.013492486972903237,-9.940997045551224e+16,7.00198882565,5.95703125e-08,7.001419181027492,0.0019271074369415415
0.012708953713950717,0.024981357692986476,-9.941121329149574e+16,7.0022034967,4.98046875e-08,7.001564702399686,0.003567967840734868
0.01398084908534579,0.04623219295285112,-9.941239483016928e+16,7.00243753382,4.1015625e-08,7.001723747755343,0.006602973013277271
0.015379933993880369,0.0855190002200932,-9.941351779979754e+16,7.00269322595,3.3203125e-08,7.001897937157023,0.01221368848669857
0.016918927393268408,0.15810800680211798,-9.941458479402379e+16,7.0029730416,2.734375e-08,7.002088977803661,0.022580119633342846
0.01861182013259525,0.2921459216116005,-9.94155982785898e+16,7.00327967076,2.24609375e-08,7.00229869155017,0.041721430987247024
0.020474002145854774,0.5394859043739265,-9.941656059774693e+16,7.00361604103,1.85546875e-08,7.00252904059497,0.07704158044135567
0.022522402360440254,0.995570803323633,-9.941747398038163e+16,7.00398535971,1.46484375e-08,7.002782152042208,0.14216789580314113
0.024775642596484283,1.8359090475413475,-9.94183405458806e+16,7.00439112211,1.171875e-08,7.0030603420407775,0.26215810772327874
0.027254206856132713,3.382905526948483,-9.9419162309757e+16,7.00483719676,9.765625e-09,7.003366140135953,0.48303993526216127
0.029980627541745988,6.228140222494705,-9.94199411890628e+16,7.00532778784,7.8125e-09,7.00370231438999,0.889263983950061
0.032979690295920586,11.455762068333495,-9.942067900760656e+16,7.00586755713,6.591796875e-09,7.004071897756982,1.6355860184705049
0.03627865932551265,21.049943800554335,-9.94213775009982e+16,7.00646161659,5.615234375e-09,7.004478216141462,3.005212258644165
0.03990752525806392,38.63672227643927,-9.942203832154018e+16,7.00711549074,5.37109375e-09,7.004924918532193,5.515651163401075
0.043899277783870316,70.83201013790216,-9.942266304298333e+16,7.0078354064,5.2490234375e-09,7.005416009580177,10.111035524662155
0.048290205562257354,129.6858865166291,-9.942325316516307e+16,7.00862831087,5.2490234375e-09,7.005955884981599,18.51080546976206
0.0531202261184831,237.10446286291472,-9.942381011853128e+16,7.00950188642,5.126953125e-09,7.00654937003041,33.84040421910074
0.058433248730331414,432.82914483965106,-9.942433526859458e+16,7.01046461331,5.126953125e-09,7.007201761720741,61.76918541208985
0.06427757360336456,788.7957713962356,-9.94248299202708e+16,7.01152586522,5.126953125e-09,7.007918874804298,112.55777720718312
0.07070633096370102,1434.8977946308958,-9.942529532216709e+16,7.01269602443,5.126953125e-09,7.008707092242932,204.73074074090013
0.07777796406007113,2605.061270123802,-9.942573267078533e+16,7.01398659796,5.126953125e-09,7.009573420542299,371.6433388784249
0.08555676046607825,4719.35698548065,-9.942614311465485e+16,7.01541035256,5.126953125e-09,7.010525550508196,673.1816254686557
0.09411343651268608,8529.780861970865,-9.942652775839462e+16,7.01698146608,5.126953125e-09,7.011571924036073,1216.5290400473941
0.1035257801639547,15378.008306294842,-9.942688766672029e+16,7.01871569761,5.126953125e-09,7.01272180762521,2192.87299969232
0.11387935818035018,27649.110900560692,-9.94272238684439e+16,7.0206305793,5.126953125e-09,7.013985373407779,3941.99722819314
0.1252682939983852,49566.40376389137,-9.942753736059267e+16,7.02274563313,5.126953125e-09,7.015373788597586,7065.397405403253
0.13779612339822375,88576.74212006968,-9.942782911291611e+16,7.0250826184,5.2490234375e-09,7.016899314399637,12623.345177306177
0.15157673573804614,157751.52656008373,-9.94281000732764e+16,7.02766580719,5.2490234375e-09,7.018575415580542,22476.288594105717
0.16673540931185077,279923.437828429,-9.942835117469522e+16,7.03052229622,5.2490234375e-09,7.020416882084896,39872.765753092775
0.18340995024303586,494768.3580730373,-9.942858334506338e+16,7.03368237334,5.2490234375e-09,7.022439964295301,70455.3346968609
0.20175194526733947,870846.8539836305,-9.942879752052186e+16,7.0371799233,5.2490234375e-09,7.024662523777971,123969.92041053607
0.22192813979407344,1525929.7709903633,-9.942899466302794e+16,7.04105289356,5.2490234375e-09,7.027104201632018,217149.1594839268
0.2441219537734808,2661041.5934291584,-9.942917578142901e+16,7.04534382579,5.2490234375e-09,7.029786606870653,378538.03283706435
0.26853514915082893,4617010.362555723,-9.942934195344642e+16,7.05010046305,5.2490234375e-09,7.032733527607739,656502.9578372564
0.29538966406591183,7967582.698375624,-9.942949434367904e+16,7.05537644433,5.2490234375e-09,7.035971168202399,1132406.9567515354
0.324929630472503,13671327.096394287,-9.942963421078403e+16,7.06123209969,5.2490234375e-09,7.039528415930335,1942079.9645408494
0.35742359351975334,23317014.23692212,-9.94297628963573e+16,7.06773536185,5.2490234375e-09,7.043437141199615,3310459.619286223
0.3931669528717287,39515897.47850386,-9.942988178958723e+16,7.07496281224,5.2490234375e-09,7.047732535821489,5606895.164885518
0.43248464815890164,66521998.40971799,-9.942999226582483e+16,7.08300088261,5.2490234375e-09,7.052453494387855,9432461.832276432
0.47573411297479185,111201660.28923492,-9.94300956033085e+16,7.09194723677,5.2490234375e-09,7.057643044429651,15756203.535541866
0.523308524272271,184530739.00536287,-9.943019288900309e+16,7.10191236071,5.2490234375e-09,7.0633488317874376,26125106.291637853
0.5756403766994982,303877256.6021083,-9.943028492990194e+16,7.11302139404,5.2490234375e-09,7.069623668606019,42983512.39706462
0.6332054143694481,496435255.7251237,-9.943037218824795e+16,7.12541624055,5.2490234375e-09,7.076526152690569,70152394.69388153
0.696526955806393,804318241.5766464,-9.943045475674774e+16,7.13925800152,5.2490234375e-09,7.084121368738958,113538179.2195103
0.7661806513870324,1292676617.1175158,-9.943053243188642e+16,7.16197108814,5.2490234375e-09,7.0976652768563895,182127018.77229863
0.8427997165257357,2058944165.4266248,-9.943060465031989e+16,7.18456255782,5.2490234375e-09,7.110281897147461,289572789.8288593
0.9270806881783094,3249437768.250083,-9.943067071024328e+16,7.20813016656,5.2490234375e-09,7.122895941961982,456196158.79928666
1.0197897569961403,5080204259.779779,-9.943072988662678e+16,7.23347072632,5.2490234375e-09,7.136063978854253,711905649.2253371
1.1217697326957543,7866087938.933815,-9.943078155680971e+16,7.2612228314,5.2490234375e-09,7.150153868376987,1100128484.4684522
1.2339477059653299,12059728956.193735,-9.943082530485187e+16,7.29195323296,5.2490234375e-09,7.165438753199915,1683041244.446915
1.357343476561863,18302845196.25543,-9.943086098810248e+16,7.32621097728,5.2490234375e-09,7.182147837214204,2548380458.199353
1.4930788242180495,27492262459.539455,-9.943088875926333e+16,7.36456318871,5.2490234375e-09,7.2004947979451845,3818107398.311705
1.6423877066398544,40863088120.28886,-9.94309090460941e+16,7.40762054261,5.2490234375e-09,7.220694458017481,5659163167.459139
1.80662747730384,60091117198.877,-9.943092249761907e+16,7.45605712628,5.2490234375e-09,7.242973228215052,8296470980.286333
1.987291225034224,87415980043.07594,-9.943092990946986e+16,7.51062745375,5.2490234375e-09,7.267576239816994,12028216445.002464
2.186021347537647,125785681296.01953,-9.943093214184706e+16,7.57218227455,5.2490234375e-09,7.294772739206985,17243262510.422455
2.404624482291412,178727585460.06204,-9.943093013447357e+16,7.62514490063,5.2490234375e-09,7.315805891532183,24430334553.70018
2.6450879305205532,251245446417.29987,-9.943092453485376e+16,7.68888505796,5.2490234375e-09,7.341440233028896,34222909734.653282
2.9095977235726087,349408328794.15967,-9.943091600826352e+16,7.76399562908,5.2490234375e-09,7.371609096609806,47399193882.222015
3.2005584959298696,480735441343.6262,-9.943090506619722e+16,7.85136574673,5.2490234375e-09,7.406395960900346,64908147482.46142
3.520615345522857,654410960309.7178,-9.943089206454038e+16,7.9521629605,5.2490234375e-09,7.446008902758691,87887480240.2215
3.872677880075143,881500536509.7979,-9.943087721584334e+16,8.06782578646,5.2490234375e-09,7.490763724174679,117678326131.81512
4.259946668082658,1175165622798.1008,-9.943086060851096e+16,8.20006440169,5.2490234375e-09,7.541073556494658,155835321588.39688
4.685942334890924,1550873619265.5178,-9.943084222860366e+16,8.35086799567,5.2490234375e-09,7.597443380952091,204130987425.82092
5.154537568380016,2026604514767.1475,-9.943082197988374e+16,8.52251793079,5.2490234375e-09,7.660468392861819,264553603100.2463
5.669992325218018,2623057913096.3203,-9.943079969905451e+16,8.71760643727,5.2490234375e-09,7.730835513615114,339298114476.338
6.236992557739821,3363867662981.326,-9.943077516510765e+16,8.93906108203,5.2490234375e-09,7.809327645605291,430749971782.0582
6.860692813513804,4275834361609.856,-9.943074810357837e+16,9.19017569384,5.2490234375e-09,7.896830484652723,541462092914.3439
7.546763094865185,5389188524356.157,-9.943071818780232e+16,9.47464876571,5.2490234375e-09,7.994341857642368,674125352696.0751
8.301440404351705,6737899232952.788,-9.943068503975094e+16,9.7966305579,5.2490234375e-09,8.102983641057714,831533115630.635
9.131585444786877,8360044910817.559,-9.943064823270816e+16,10.1607801733,5.2490234375e-09,8.2240163415065,1016540406008.7434
10.044744989265565,10298265042090.393,-9.94306072971863e+16,10.5723337907,5.2490234375e-09,8.358856391338048,1232018419740.0588
11.049220488192123,12600314647443.432,-9.943056173037747e+16,11.0371850798,5.2490234375e-09,8.509096149355363,1480805296623.4272
12.154143537011336,15319747387810.613,-9.943051100843182e+16,11.5619786874,5.2490234375e-09,8.676526524922872,1765654417560.4644
13.36955889071247,18516758077441.7,-9.943045460016274e+16,12.1542176679,5.2490234375e-09,8.863162093516557,2089181928759.578
14.706515779783718,22259220480083.523,-9.943039198051022e+16,12.8223859343,5.2490234375e-09,9.071268569816286,2453815616720.774
16.177168357762092,26623960577057.008,-9.943032264221416e+16,13.5760872382,5.2490234375e-09,9.303392568092066,2861747516531.7065
17.794886193538304,31698308095398.047,-9.943024610456627e+16,14.4262028368,5.2490234375e-09,9.5623937129386,3314892593525.8213
19.574375812892136,37581969392776.055,-9.943016191868051e+16,15.3850708022,5.2490234375e-09,9.851479357087298,3814855417195.6963
21.53181439418135,44389262850223.44,-9.943006966931622e+16,16.4666907781,5.2490234375e-09,10.17424239732589,4362905965547.894
23.684996833599484,52251754440557.19,-9.942996897380965e+16,17.6869588302,5.2490234375e-09,10.53470292850526,4959964680083.395
