t(s),inventory(He/m2),flux_surface_left(He/m2/s),max_ib(He),x_max_ib(m),mean_ib(He),total_bubbles
1e-06,7109432.2326527275,-9.057572237759147e+21,720547150.627,9.912109375e-07,55.49321407814523,128113.5423628782
1.9090909090909087e-06,78735729.6623927,-9.147423477444235e+21,684218077.284,9.912109375e-07,72.20728760165399,1090412.5092851317
2.9090909090909084e-06,434839312.45151806,-9.172175191452062e+21,350769363.074,9.912109375e-07,73.13481991684735,5945722.064345282
4.009090909090909e-06,1574830962.7654169,-9.185134548623194e+21,178142604.376,9.912109375e-07,67.33776179262827,23387040.508047
5.219090909090909e-06,4407711912.0764475,-9.193521966479772e+21,89874219.7364,9.912109375e-07,59.54167627677555,74027339.96919216
6.55009090909091e-06,10397223635.5814,-9.199564257181784e+21,45382273.1845,9.912109375e-07,51.70769398370641,201076915.92004982
8.01419090909091e-06,21718796457.268642,-9.204208930658931e+21,23010887.3466,9.912109375e-07,44.56100296429689,487394695.1927933
9.62470090909091e-06,41418505636.51495,-9.207937867062158e+21,11741134.4807,9.912109375e-07,38.30523610964511,1081275299.2295468
1.139626190909091e-05,73559760120.4459,-9.211026026622796e+21,6039614.47474,9.912109375e-07,32.93302282517266,2233617014.476419
1.3344979009090911e-05,123342619125.42139,-9.213643522009423e+21,3137281.20208,9.912109375e-07,28.359984150240052,4349177999.254184
1.5488567819090912e-05,197187716726.32962,-9.215902123621852e+21,1648184.9243,9.912109375e-07,24.48209522051234,8054364422.254014
1.7846515510090912e-05,302796713359.62213,-9.217878765666625e+21,876938.084543,9.912109375e-07,21.19931457616504,14283325636.389425
2.0440257970190915e-05,449232787090.4599,-9.219628401602431e+21,473131.085187,9.912109375e-07,18.42398693623934,24383038733.42608
2.3293374676300916e-05,647092621836.406,-9.221191484830884e+21,259130.83013,9.912109375e-07,16.082180214462998,40236622970.712875
2.643180305302192e-05,908839337601.5837,-9.222598545777157e+21,144210.003153,9.912109375e-07,14.111858690901851,64402525387.21405
2.9884074267415023e-05,1249317421967.3892,-9.223873110758583e+21,81614.1549761,9.912109375e-07,12.460059443301393,100265767402.82167
3.3681572603247435e-05,1686393571705.287,-9.225033628979645e+21,47003.5074214,9.912109375e-07,11.0803691319529,152196515442.98892
3.7858820772663094e-05,2241614002368.0205,-9.226094782367162e+21,27563.923453,9.912109375e-07,9.9313368537969,225711204379.40012
4.245379375902031e-05,2940795201258.737,-9.227068398012929e+21,16466.6024606,9.912109375e-07,8.975894532898797,327632548542.10016
4.750826404401326e-05,3814593282917.4478,-9.227964096831468e+21,10024.990696,9.912109375e-07,8.181485310094015,466247036856.6381
5.30681813575055e-05,4899285773089.344,-9.228789762235225e+21,6221.67018416,9.912109375e-07,7.520451712881757,651461635568.6951
5.918409040234696e-05,6238179387799.29,-9.229551882896807e+21,3936.96456835,9.912109375e-07,6.9703068276731015,894964818913.3995
6.591159035167256e-05,7884197327919.172,-9.230255805305242e+21,2540.37888139,9.912109375e-07,6.513712757398416,1210399908863.6707
7.331184029593073e-05,9904179652029.068,-9.230905920352328e+21,3416.47504071,5e-06,6.138091210107641,1613560195345.3838
8.145211523461472e-05,12385430569282.059,-9.231505800720089e+21,1434.76333667,5e-06,5.834987484514187,2122614761754.4124
9.04064176671671e-05,15444939410864.848,-9.232058301004644e+21,911.186352253,5.375e-06,5.599297273514685,2758371034151.227
0.00010025615034297473,19241696244021.695,-9.232565629338828e+21,60022.7979379,3.625e-06,5.428491975098786,3544574871306.0483
0.00011109085628636313,23992588764720.816,-9.233029397187918e+21,30467.5954713,3.625e-06,5.321939092896141,4508241891897.397
0.00012300903282409036,29992545403215.867,-9.233450652656837e+21,16071.4569268,3.625e-06,5.280372889442463,5680005187357.6455
0.00013611902701559032,37639861922422.016,-9.233829901861451e+21,17622.2355945,5.125e-06,5.305532558354041,7094454987964.338
0.00015054002062624028,47467977390121.31,-9.23416712256197e+21,16058.0136099,5.75e-06,5.399957485270103,8790435391316.232
0.00016640311359795523,60185301736705.805,-9.234461774263436e+21,14533.5654459,5.75e-06,5.566913293360154,10811251867078.809
0.00018385251586684168,76724992535444.97,-9.234712809296448e+21,12099.2211682,6.125e-06,5.8104169858305035,13204730869152.654
0.00020304685836261676,98306788494747.33,-9.234918689918857e+21,10793.221706,6.375e-06,6.1353317821144575,16023059874500.748
0.00022416063510796936,126513086978518.3,-9.235077417096694e+21,9516.49162906,6.75e-06,6.547508896990542,19322323798088.77
0.00024738578952785724,163381349857883.3,-9.235186577148211e+21,8448.32502943,7e-06,7.05396149724486,23161644690249.145
0.0002729334593897339,211514569056818.9,-9.235243412634391e+21,7519.82219262,7.375e-06,7.663063146825037,27601830365244.18
0.00030103589623779823,274210845417118.7,-9.23524492344886e+21,6656.46562807,7.75e-06,8.384768029179734,32703450407076.348
0.00033194857677066897,355612075001230.3,-9.23518800260598e+21,5926.10770481,8.125e-06,9.230852881635068,38524292344505.49
0.00036595252535682684,460870300238293.7,-9.235069608285883e+21,5313.78903773,8.5e-06,10.215181232848275,45116213773702.21
0.0004033568688016005,596328587255723.0,-9.234886968885169e+21,4765.42689466,8.875e-06,11.353989708043828,52521501480069.96
0.0004445016465908515,769711609320440.6,-9.234637811121588e+21,4274.18458765,9.375e-06,12.666194339310385,60768972013289.66
0.0004897609021590276,990319888649204.0,-9.234320593323454e+21,3876.33984158,9.75e-06,14.173712488544805,69870183231780.7
0.0005395460832840213,1269221423567157.2,-9.233934718473321e+21,3530.81129976,1.025e-05,15.901793789427302,79816242140621.28
0.0005943097825215144,1619435722278907.8,-9.23348069672597e+21,3216.4267084,1.075e-05,17.879352232021642,90575749124653.61
0.0006545498516827568,2056108354240423.5,-9.232960227528362e+21,2925.49391455,1.125e-05,20.13929198083784,102094371351126.55
0.0007208139277601234,2596678843768973.0,-9.232376178853743e+21,2701.54626534,1.1875e-05,22.718822369101833,114296366316086.94
0.0007937044114452267,3261050359818411.0,-9.231732455235644e+21,2476.96911539,1.25e-05,25.659762901383676,127088094007390.94
0.0008738839434988404,4071775076951715.5,-9.231033764614107e+21,2282.28379115,1.3125e-05,29.00884648232827,140363219179782.84
0.0009620814287578153,5054273089297406.0,-9.230285311907838e+21,2114.59361419,1.375e-05,32.81803722894498,154008999808179.22
0.0010590986625426879,6237104486723174.0,-9.229492459733065e+21,1954.87542292,1.4375e-05,37.14488645188934,167912869912836.4
0.0011658176197060477,7652313447373674.0,-9.228660400370803e+21,1815.85520743,1.5125e-05,42.052955122889536,181968506731849.12
0.0012832084725857436,9335860483799164.0,-9.227793877370563e+21,1686.26863151,1.5875e-05,47.61233241319925,196080721330321.7
0.0014123384107534091,1.1328155326122794e+16,-9.226896982426387e+21,1564.91236159,1.6625e-05,53.90027766630613,210168774941287.4
0.001554381342737841,1.3674699482886404e+16,-9.225973037486441e+21,1460.66441686,1.75e-05,61.00200835514926,224168020883399.4
0.0017106285679207162,1.6426845199573024e+16,-9.22502455765733e+21,1362.04227035,1.8375e-05,69.01165065957021,238030028880276.16
0.0018825005156218788,1.9642676811411204e+16,-9.224053280243345e+21,1270.87299458,1.925e-05,78.03336387731537,251721518020081.34
0.002071559658093158,2.3388021393634708e+16,-9.223060240274783e+21,1188.44990477,2.025e-05,88.18264620241074,265222494457138.75
0.0022795247148115648,2.7737597870280776e+16,-9.222045872576633e+21,1112.11766001,2.125e-05,99.58782812198427,278523976206261.2
0.0025082862772018125,3.2776316940256948e+16,-9.221010123337808e+21,1041.61146926,2.225e-05,112.39176083886926,291625620024289.9
0.0027599239958310848,3.86007479236034e+16,-9.21995255859741e+21,977.248679069,2.3375e-05,126.75371031901219,304533475402443.94
0.0030367254863232843,4.532077263609784e+16,-9.218872461707046e+21,917.318863828,2.45e-05,142.85147218005403,317258001926464.25
0.0033412071258647038,5.306145051576397e+16,-9.217768915804791e+21,861.951733296,2.575e-05,160.88372807836637,329812412663123.8
0.0036761369293602654,6.196512341904612e+16,-9.216640870280772e+21,811.089315989,2.7e-05,181.07267005735673,342211353040842.6
0.004044559713205383,7.219379283112707e+16,-9.215487192110302e+21,763.756820328,2.825e-05,203.66692522380615,354469891229489.2
0.004449824775435013,8.393180679746707e+16,-9.214306703952993e+21,720.217816452,2.9625e-05,228.94481903419086,366602778571427.75
0.004895616343887605,9.738889880765326e+16,-9.2130982113064e+21,680.076288177,3.1125e-05,257.2180214459306,378623932569690.6
0.005385987069185457,1.1280362627898411e+17,-9.21186052099135e+21,642.795115527,3.2625e-05,288.83562634813836,390546096079643.7
0.005925394867013094,1.304472623244817e+17,-9.210592453014011e+21,608.183049626,4.2724609375e-09,324.1887212018384,402380631383119.06
0.006518743444623495,1.5062820127328246e+17,-9.209292847525324e+21,693.348958145,4.2724609375e-09,363.71551087220223,414137414464593.2
0.007171426879994936,1.7369694606445088e+17,-9.207960568259703e+21,790.618345197,4.2724609375e-09,407.90706740532994,425824801637602.75
0.007889378658903521,2.000517542846779e+17,-9.206594503524354e+21,901.749071129,4.2724609375e-09,457.31378616331386,437449646911008.06
0.008679125615702965,2.30145029399557e+17,-9.205193565547039e+21,1028.76014814,4.2724609375e-09,512.5526384538816,449017353795682.3
0.009547847268182353,2.6449055478186986e+17,-9.203756688777117e+21,1173.97114572,4.2724609375e-09,574.3153217456306,460531949553341.5
0.010503441085909681,3.036716806278238e+17,-9.202282827568553e+21,1340.0552834,4.150390625e-09,643.3774209230285,471996173244870.6
0.01155459428540974,3.483505879514377e+17,-9.200770953547933e+21,1530.0803841,4.150390625e-09,720.6087079960596,483411571475684.3
0.012710862804859807,3.9927876975727795e+17,-9.199220052876705e+21,1747.56348176,4.150390625e-09,806.9847234420379,494778597609916.7
0.01398275817625488,4.573088874367279e+17,-9.197629123548784e+21,1996.55694277,4.150390625e-09,903.5998001482237,506096711577085.7
0.01538184308478946,5.2340818066472525e+17,-9.195997172815664e+21,2281.72203957,4.150390625e-09,1011.6817109942572,517364478349946.56
0.0169208364841775,5.98673631876448e+17,-9.194323214796859e+21,2608.42160415,4.150390625e-09,1132.6081437435705,528579663834724.7
0.01861372922350434,6.843491120956178e+17,-9.192606268310553e+21,2982.82690742,4.150390625e-09,1267.9252324162255,539739327366713.8
0.020475911236763865,7.818447638273641e+17,-9.190845354944875e+21,3412.0409615,4.150390625e-09,1419.3684030432735,550839910308703.25
0.022524311451349345,8.927589093225549e+17,-9.189039497382115e+21,3904.24078245,4.150390625e-09,1588.8858240491822,561877320453027.4
0.024777551687393373,1.01890280922119e+18,-9.187187717984051e+21,4468.84154384,4.150390625e-09,1778.6647879160753,572847012064010.1
0.027256115947041804,1.1623286378999933e+18,-9.185289037641623e+21,5116.68600575,4.150390625e-09,1991.1613917493808,583744061489060.2
0.029982536632655078,1.3253610883571348e+18,-9.18334247488308e+21,5860.2631281,4.150390625e-09,2229.1339304477588,594563238329477.1
0.03298159938682968,1.5106330718085366e+18,-9.181347045216236e+21,6714.06549338,4.0283203125e-09,2495.6804680092023,605299072205972.1
0.03628056841642174,1.7211260360694958e+18,-9.179301760652798e+21,7694.60753149,4.0283203125e-09,2794.2811107884627,615945915185264.0
0.03990943434897301,1.960215493063846e+18,-9.177205629330944e+21,8820.99591241,4.0283203125e-09,3128.845572052622,626497999956540.6
0.04390118687477941,2.2317224203527867e+18,-9.175057655128499e+21,10115.258965,4.0283203125e-09,3503.7666908550837,636949493862601.2
0.04829211465316645,2.5399712854314424e+18,-9.172856837157509e+21,11602.7894437,4.0283203125e-09,3923.980651072655,647294548900774.8
0.05312213520939219,2.889855535850784e+18,-9.170602169063403e+21,13312.8622209,4.0283203125e-09,4395.0347395476465,657527347815280.0
0.05843515782124051,3.286911504277679e+18,-9.168292638117094e+21,15279.2319938,4.0283203125e-09,4923.163586923415,667642146405242.0
0.06427948269427365,3.737401796851676e+18,-9.165927224173032e+21,17540.8233934,4.0283203125e-09,5515.374952373968,677633312172728.4
0.07070824005461011,4.2484093672575053e+18,-9.163504898643928e+21,20142.5278049,4.0283203125e-09,6179.54624560694,687495359433180.6
0.07777987315098023,4.827943629626315e+18,-9.161024623687303e+21,23136.1234207,4.0283203125e-09,6924.533128050574,697222981007746.1
0.08555866955698735,5.485060132744477e+18,-9.158485351791552e+21,26581.3376058,4.0283203125e-09,7760.291702028959,706811076613316.8
0.09411534560359519,6.229995508373081e+18,-9.155886025888866e+21,30547.2555852,3.90625e-09,8698.01598422515,716254778063398.9
0.1035276892548638,7.07431962032989e+18,-9.153225580025176e+21,35113.8564208,3.90625e-09,9750.292570360532,725549471390713.9
0.11388126727125929,8.031107081245859e+18,-9.15050294051012e+21,40372.4763265,3.90625e-09,10931.274634614521,734690816001904.1
0.12527020308929432,9.115130573836526e+18,-9.147717027382365e+21,46429.0254139,3.90625e-09,12256.877673086734,743674760975321.0
0.13779803248913286,1.0343078716802007e+19,-9.144866755976281e+21,53405.7270746,3.90625e-09,13744.999699196222,752497558614486.4
0.15157864482895525,1.1733801556227756e+19,-9.141951038374843e+21,61443.6395741,3.90625e-09,15415.768934417909,761155775371695.2
0.16673731840275988,1.330858714625059e+19,-9.138968784572425e+21,70705.5678717,3.90625e-09,17291.822414781258,769646300257759.4
0.18341185933394497,1.5091473112952138e+19,-9.135918903237192e+21,81379.4260091,3.90625e-09,19398.619357200183,777966350855306.5
0.20175385435824855,1.7109597578669541e+19,-9.132800302037011e+21,93682.1197251,3.90625e-09,21764.793605590592,786113477054737.8
0.22193004888498252,1.9393594366507803e+19,-9.129611887559137e+21,107864.029696,3.90625e-09,24422.55001104776,794085562635144.0
0.2441238628643899,2.197803801379994e+19,-9.126352564901915e+21,124214.188195,3.90625e-09,27408.110199897907,801880824818115.6
0.268537058241738,2.490194480644355e+19,-9.123021237041476e+21,143066.256273,3.90625e-09,30762.213855884496,809497811929425.2
0.2953915731568209,2.8209336812285985e+19,-9.119616804079318e+21,164807.688054,3.7841796875e-09,34530.68239676206,816935399311169.5
0.32493153956341214,3.1949876751083487e+19,-9.116138162462388e+21,189885.054571,3.7841796875e-09,38765.05277112959,824192783632124.2
0.35742550261066247,3.6179582502461157e+19,-9.112584204243697e+21,218809.687791,3.7841796875e-09,43523.290049826544,831269475746017.1
0.39316886196263784,4.096163113468757e+19,-9.108953816424695e+21,252174.816216,3.7841796875e-09,48870.58855053685,838165292245853.2
0.4324865572498108,4.63672635505529e+19,-9.105245880398362e+21,290665.36461,3.7841796875e-09,54880.27242887362,844880345859182.5
0.475736022065701,5.247680220850605e+19,-9.101459271495578e+21,335072.132509,3.7841796875e-09,61634.80801023218,851415034825682.0
0.5233104333631802,5.9380795905638375e+19,-9.097592858629656e+21,386308.162257,3.7841796875e-09,69226.94164195113,857770031395608.5
0.5756422857904073,6.718130732429763e+19,-9.093645504031482e+21,445427.633809,3.7841796875e-09,77760.97853458213,863946269585850.6
0.6332073234603572,7.59933609685285e+19,-9.089616063068161e+21,513647.675354,3.7841796875e-09,87354.21995642681,869944932327651.4
0.6965288648973021,8.594657127514266e+19,-9.085503384138178e+21,592373.538443,3.7841796875e-09,98138.57827146655,875767438136316.8
0.7661825604779415,9.718697310496236e+19,-9.081306308633624e+21,683227.655139,3.7841796875e-09,110262.39169490986,881415427427635.6
0.8428016256166448,1.0987907953377747e+20,-9.077023670955234e+21,788083.173993,3.7841796875e-09,123892.46331345775,886890748598441.4
0.9270825972692185,1.2420819490482161e+20,-9.072654298560365e+21,909120.270704,3.662109375e-09,139216.3519135768,892195443980086.5
1.0197916660870494,1.4038301451420502e+20,-9.068197012019641e+21,1048847.72605,3.662109375e-09,156444.9455190243,897331735764732.0
1.1217716417866634,1.5863854612188866e+20,-9.063650625057107e+21,1210133.50333,3.662109375e-09,175815.3523022427,902302011994802.8
1.233949615056239,1.792393927627887e+20,-9.059013944552304e+21,1396308.8237,3.662109375e-09,197594.1477515276,907108812697126.0
1.3573453856527722,2.0248344113115005e+20,-9.054285770489799e+21,1611219.47657,3.662109375e-09,222081.02170215177,911754816234205.8
1.4930807333089586,2.287060051885879e+20,-9.049464895851142e+21,1859305.16311,3.662109375e-09,249612.87413604106,916242825936699.4
1.6423896157307638,2.5828448067199477e+20,-9.044550106453176e+21,2145691.03881,3.662109375e-09,280568.41459007363,920575757072880.2
1.8066293863947493,2.9164357292968405e+20,-9.039540180743627e+21,2476293.32382,3.662109375e-09,315373.3266642565,924756624202924.6
1.9872931341251334,3.292611680797414e+20,-9.034433889568227e+21,2857941.13448,3.662109375e-09,354506.066573653,928788528958314.1
2.1860232566285562,3.716749259607223e+20,-9.02922999592372e+21,3298517.01787,3.662109375e-09,398504.37303779164,932674648279142.0
2.404626391382321,4.194896828401689e+20,-9.02392725470868e+21,3807119.04883,3.662109375e-09,447972.5751551859,936418223135311.4
2.6450898396114626,4.733857624822291e+20,-9.018524412480209e+21,4394247.7843,3.662109375e-09,503589.79538828216,940022547750863.6
2.909599632663518,5.3412830608797454e+20,-9.013020207220973e+21,5072110.73178,3.5400390625e-09,566119.1565194095,943490959344814.0
3.200560405020779,6.025777449626181e+20,-9.007413368118009e+21,5854854.08394,3.5400390625e-09,636418.1145810082,946826828396188.5
3.520617254613766,6.79701554703018e+20,-9.001702615352993e+21,6758477.96201,3.5400390625e-09,715450.0544810975,950033549436225.5
3.8726797891660523,7.665874464270223e+20,-8.995886659902532e+21,7801632.8313,3.5400390625e-09,804297.301525523,953114532366357.8
4.259948577173567,8.644581692958782e+20,-8.989964203347074e+21,9005840.39184,3.5400390625e-09,904175.720491176,956073194297097.5
4.685944243981833,9.746881195507451e+20,-8.983933937686959e+21,10395934.1955,3.5400390625e-09,1016451.094564541,958912951899877.1
5.154539477470926,1.0988219747598259e+21,-8.977794545164424e+21,12000567.6092,3.5400390625e-09,1142657.499589029,961637214261518.2
5.669994234308928,1.2385955982520486e+21,-8.971544698090454e+21,13852799.369,3.5400390625e-09,1284517.914956636,964249376229106.4
6.236994466830731,1.3959594881286144e+21,-8.965183058675636e+21,15990768.5199,3.5400390625e-09,1443967.3414617302,966752812231530.6
6.8606947226047135,1.5731050781679687e+21,-8.958708278864015e+21,18458472.3194,3.5400390625e-09,1623178.728874284,969150870563069.4
7.546765003956095,1.7724942347875343e+21,-8.952119000169123e+21,21306662.7327,3.5400390625e-09,1824592.0522960022,971446868113390.1
8.301442313442614,1.996892335463244e+21,-8.945413853511046e+21,24593879.5068,3.5400390625e-09,2050946.9169939018,973644085528119.8
9.131587353877785,2.249405360153913e+21,-8.93859145905359e+21,28387645.6235,3.41796875e-09,2305319.116874034,975745762783618.9
10.044746898356474,2.5335214789137284e+21,-8.931650426040315e+21,32768145.4492,3.41796875e-09,2591161.6226351713,977755095159666.8
11.049222397283032,2.853157676651102e+21,-8.924589352628272e+21,37823629.9538,3.41796875e-09,2912350.5325687258,979675229593528.6
12.154145446102245,3.212712020632869e+21,-8.9174068257181e+21,43657839.4226,3.41796875e-09,3273236.582661883,981509261399066.5
13.369560799803379,3.617122248648868e+21,-8.910101420779243e+21,50390402.8006,3.41796875e-09,3678702.8839146686,983260231334510.5
14.706517688874627,4.071931436651809e+21,-8.902671701668904e+21,58159260.7969,3.41796875e-09,4134229.6344923163,984931123002760.5
16.177170266853,4.5833615951817574e+21,-8.89511622044341e+21,67123456.6727,3.41796875e-09,4645966.643499126,986524860568043.9
17.794888102629212,5.158396145109227e+21,-8.887433517160801e+21,77466350.186,3.41796875e-09,5220814.602896014,988044306773091.8
19.574377721983044,5.804872336446381e+21,-8.879622119673273e+21,89399318.4714,3.41796875e-09,5866516.155635116,989492261241022.5
