t(s),inventory(He/m2),flux_surface_left(He/m2/s),max_ib(He),x_max_ib(m),mean_ib(He),total_bubbles
1e-06,0.00011108872476675965,-1.4516716361661065e+20,7.75976627588,7.8125e-09,7.468971937734086,1.4873362183291508e-05
2.1000000000000002e-06,0.0027858831681367036,-1.490324659373887e+20,9.11948695301,1.171875e-08,8.349147670980873,0.00033367276252875436
3.3100000000000005e-06,0.02342486133244886,-1.5008086338776347e+20,8.79321973533,1.46484375e-08,8.155547376532065,0.002872261082052554
4.641000000000001e-06,0.12335112531843506,-1.5061466773573294e+20,8.15018496207,1.5625e-08,7.714370487985843,0.015989784974747952
6.105100000000001e-06,0.5100452360008811,-1.5095348109629823e+20,7.7003561634,1.5625e-08,7.407378797331618,0.06885637280823498
7.715610000000002e-06,1.8067385097589184,-1.5119390637434834e+20,7.42677469892,1.5625e-08,7.229468545603434,0.24991304663157812
9.487171000000002e-06,5.722163696637916,-1.513763885373186e+20,7.26397229347,1.5625e-08,7.1305558893507275,0.8024849374203485
1.1435888100000002e-05,16.62776020704686,-1.5152123782669133e+20,7.16643626769,1.5625e-08,7.075799504591167,2.349947902884735
1.3579476910000003e-05,45.12066576381584,-1.5163992614138937e+20,7.10724802358,1.5625e-08,7.045308972467776,6.404355854390773
1.5937424601000003e-05,115.80995269436539,-1.5173949239050365e+20,7.07089912068,1.46484375e-08,7.028221776338238,16.477845517661414
1.8531167061100006e-05,283.875007328846,-1.518245300267807e+20,7.04837995062,1.46484375e-08,7.018632755334327,40.44591264774386
2.1384283767210007e-05,669.4832148075542,-1.5189818329541827e+20,7.03435514783,1.46484375e-08,7.013305462116783,95.45901264729572
2.452271214393101e-05,1527.942216399611,-1.5196268819998238e+20,7.02566043623,1.46484375e-08,7.010444651312892,217.95225444272828
2.7974983358324114e-05,3390.267478141074,-1.5201968536915273e+20,7.02037159886,1.46484375e-08,7.0090420781359235,483.69911898755873
3.177248169415653e-05,7340.612515754667,-1.5207041048693244e+20,7.01731473105,1.3671875e-08,7.008525214329062,1047.3833354764347
3.5949729863572185e-05,15556.406001694522,-1.5211581520762444e+20,7.01574070888,1.3671875e-08,7.008566264024415,2219.6274409998687
4.0544702849929404e-05,32346.95358512559,-1.5215664671695566e+20,7.01519005761,1.26953125e-08,7.008976885472877,4615.074940847551
4.559917313492235e-05,66127.62809804274,-1.521935017023529e+20,7.0153704993,1.171875e-08,7.009649355700412,9433.799715568683
5.115909044841459e-05,133132.07938197214,-1.522268639421182e+20,7.01610257955,1.07421875e-08,7.010523263298708,18990.319892231357
5.727499949325605e-05,264321.2076841674,-1.5225713109633706e+20,7.01728231749,8.7890625e-09,7.011566432238087,37697.882525773384
6.400249944258165e-05,518115.36342199857,-1.5228463419374227e+20,7.01884704438,6.2255859375e-09,7.012763886967304,73881.76356327598
7.140274938683982e-05,1003633.5343809469,-1.5230965206361512e+20,7.02075497143,4.7607421875e-09,7.014111420155223,143087.76611346393
7.954302432552381e-05,1922711.7395630055,-1.5233242219652986e+20,7.02294937509,4.39453125e-09,7.015611827651737,274061.87611246086
8.84973267580762e-05,3645168.076409308,-1.5235314903450242e+20,7.0254208195,4.2724609375e-09,7.017272708086042,519456.5222196595
9.834705943388383e-05,6842364.693946904,-1.5237201037850925e+20,7.0281833407,4.2724609375e-09,7.019105192067974,974820.081294579
0.00010918176537727222,12721996.989607934,-1.5238916239472407e+20,7.03125912717,4.2724609375e-09,7.021123231725546,1811960.361573274
0.00012109994191499945,23436904.853969075,-1.5240474356160283e+20,7.03467750521,4.150390625e-09,7.023343234179219,3337001.207617617
0.0001342099361064994,42789988.13562548,-1.5241887780454577e+20,7.03847261406,4.150390625e-09,7.025783911477448,6090421.890961233
0.00014863092971714937,77437633.55304049,-1.5243167699850933e+20,7.04268416721,4.150390625e-09,7.02846627182794,11017714.32886179
0.00016449402268886432,138923246.75812095,-1.524432429722273e+20,7.04735781264,4.150390625e-09,7.031413708083971,19757512.85952664
0.00018194342495775077,247077371.7509309,-1.5245366911447328e+20,7.05254543621,4.150390625e-09,7.034652158192875,35122898.21795572
0.00020113776745352586,435641066.22474974,-1.524630416589916e+20,7.05830581527,4.150390625e-09,7.038210323781901,61896568.32969763
0.00022225154419887848,761461790.4556265,-1.524714407075612e+20,7.06470542839,4.150390625e-09,7.042119940195686,108129625.30065443
0.00024547669861876636,1319356365.104736,-1.5247894103823565e+20,7.07181942604,4.150390625e-09,7.046416095865405,187237930.19814557
0.000271024368480643,2265843323.636017,-1.524856127367549e+20,7.07973277415,4.150390625e-09,7.051137601907889,321344363.35818034
0.00029912680532870735,3856562413.06546,-1.5249152168245717e+20,7.08854158891,4.150390625e-09,7.056327414948209,546539607.1185235
0.0003300394858615781,6504506799.901372,-1.5249672991500072e+20,7.09835468656,4.150390625e-09,7.062033117705897,921053001.5206672
0.0003640434344477359,10869417746.469116,-1.525012959042425e+20,7.13406947501,2.875e-06,7.068307463111885,1537768101.2313745
0.00040144777789250956,17993087391.712303,-1.52505274742326e+20,10.6113039043,2.875e-06,7.075208988779533,2543117442.926035
0.00044259255568176054,29501148794.341908,-1.5250871827411272e+20,1796.05425135,3.125e-06,7.082802709632496,4165180085.310131
0.00048785181124993667,47899442336.705,-1.525116751794583e+20,190174.666248,3.375e-06,7.091160897459765,6754809689.040311
0.0005376369923749304,77002385395.60602,-1.525141910185037e+20,1777369.75808,3.375e-06,7.100363956776024,10844850470.25245
0.0005924006916124235,122541917340.21349,-1.5251630824922015e+20,5904448.45908,3.375e-06,7.110501400545645,17233934772.983784
0.0006526407607736659,193018243961.03824,-1.525180662249978e+20,11723029.4391,3.375e-06,7.121672879597137,27102935956.80528
0.0007189048368510325,300867058634.8328,-1.525195011791191e+20,17974742.3153,3.375e-06,7.133989068227208,42173748201.38295
0.0007917953205361358,464030964007.29346,-1.5252064620241646e+20,22790284.0095,3.375e-06,7.147572476636617,64921477260.15774
0.0008719748525897494,708033948831.329,-1.525215312201471e+20,12109440.6643,3.375e-06,7.1625611467504635,98852063434.39767
0.0009601723378487245,1068664172218.644,-1.5252218297397818e+20,6497215.74525,3.375e-06,7.179111097335041,148857450139.66187
0.001057189571633597,1595369786937.7236,-1.5252262501477794e+20,3521988.12853,3.375e-06,7.197398280229059,221659233631.70483
0.001163908528796957,2355463344166.03,-1.525228777116001e+20,1930184.49357,3.375e-06,7.217623918481987,326348860895.1284
0.0012812993816766526,3439208296222.1167,-1.525229582815597e+20,1070189.30814,3.375e-06,7.240018699806321,475027543273.3508
0.001410429319844318,4965826812705.256,-1.5252288084415218e+20,600705.985913,3.375e-06,7.264845424957234,683541978146.6979
0.00155247225182875,7090420676928.231,-1.5252265650178608e+20,341563.812064,3.375e-06,7.292399149269702,972302877529.4482
0.0017087194770116251,10011739567828.025,-1.5252229344589926e+20,196850.062141,3.375e-06,7.323004945445207,1367162748409.0625
0.0018805914247127878,13980670036858.66,-1.5252179708518547e+20,115046.260911,3.375e-06,7.357014694454327,1900318351599.4883
0.0020696505671840668,19309264454135.555,-1.5252117018959816e+20,68214.2952189,3.375e-06,7.3948050459914345,2611193173321.4106
0.0022776156239024737,26380095358480.258,-1.52520413041456e+20,41049.7291415,3.375e-06,7.436778470982843,3547247704286.379
0.0025063771862927214,35655720155222.68,-1.525195235837336e+20,25079.436026,3.375e-06,7.483368307258503,4764661939816.375
0.0027580149049219937,47688083623273.77,-1.5251849755589503e+20,15560.1870158,3.375e-06,7.535047446339806,6328836541890.462
0.0030348163954141932,63127774494761.71,-1.5251732860954614e+20,9806.12855739,3.375e-06,7.59233938567301,8314667099034.833
0.0033392980349556127,82733183246198.17,-1.5251600839949173e+20,6278.33713205,3.375e-06,7.655830079332966,10806559496342.232
0.0036742278384511743,107379769722309.73,-1.5251452664991993e+20,4084.32759191,3.375e-06,7.726179283041681,13898172148036.918
0.004042650622296292,138069825111439.67,-1.5251287119957672e+20,2700.09992583,3.375e-06,7.804130688920145,17691890437901.465
0.004447915684525921,175943284524470.12,-1.5251102803315638e+20,1814.13840397,3.375e-06,7.89052077570771,22298057317856.76
0.004893707252978514,222290296708198.3,-1.5250898130810035e+20,1238.90245563,3.375e-06,7.986286785056064,27833998789543.57
0.005384077978276365,278566373116938.44,-1.5250671338630503e+20,860.050857576,3.375e-06,8.092474501712998,34422891670276.145
0.005923485776104002,346411013474236.8,-1.525042048790612e+20,606.983072083,3.375e-06,8.210246594398908,42192522415899.3
0.006516834353714403,427670741312884.1,-1.5250143471133455e+20,435.552472144,3.375e-06,8.340892235239865,51273979959361.664
0.007169517789085845,524427486126759.8,-1.5249838020895058e+20,317.805256806,3.375e-06,8.48583854200414,61800313962007.5
0.00788746956799443,639033243121752.2,-1.5249501720998268e+20,235.819122511,3.375e-06,8.646664365630617,73905175001567.95
0.008677216524793875,774151928190452.2,-1.5249132020012905e+20,177.960868948,3.375e-06,8.825116706893237,87721438016311.73
0.009545938177273262,932809402956566.2,-1.5248726247107215e+20,136.587236096,3.375e-06,9.023130533745531,103379797008140.36
0.01050153199500059,1118452540496783.5,-1.524828163016143e+20,106.615711916,3.375e-06,9.242850867021493,121007312201414.39
0.01155268519450065,1335018502882331.0,-1.5247795316113614e+20,84.6265843955,3.375e-06,9.48665895613273,140725887697195.77
0.012708953713950717,1587015345582752.8,-1.524726439360664e+20,68.2921411539,3.375e-06,9.757201853655184,162650662493800.38
0.01398084908534579,1879615436979834.8,-1.5246685917975547e+20,56.0103305635,3.375e-06,10.057426870905848,186888302654945.6
0.015379933993880369,2218762712867785.2,-1.5246056938821317e+20,46.66570268,3.375e-06,10.39061754134054,213535211361608.16
0.016918927393268408,2611296230333057.0,-1.5245374529814115e+20,39.4735478945,3.375e-06,10.760437080849051,242675665561998.97
0.01861182013259525,3065091511128105.5,-1.5244635820664796e+20,33.8756632878,3.375e-06,11.170976227520597,274379915300240.84
0.020474002145854774,3589221390166381.5,-1.5243838030909866e+20,29.4703644668,3.375e-06,11.62680414866281,308702317874613.5
0.022522402360440254,4194139359546110.0,-1.5242978504590855e+20,25.9668927837,3.375e-06,12.133026394324599,345679571051455.06
0.024775642596484283,4891888167914944.0,-1.5242054744809796e+20,26.1322111121,4.150390625e-09,12.69535116509455,385329094429859.44
0.027254206856132713,5696335990381889.0,-1.52410644472302e+20,28.5839887017,4.150390625e-09,13.320162107137913,427647647570998.94
0.029980627541745988,6623443571296635.0,-1.5240005531190146e+20,31.3547549841,4.150390625e-09,14.014599674667117,472610258234433.56
0.032979690295920586,7691565778956543.0,-1.523887616709945e+20,34.4879607174,4.150390625e-09,14.786651852865486,520169532324926.2
0.03627865932551265,8921791617465772.0,-1.5237674798855668e+20,38.0332780883,4.150390625e-09,15.645256068539059,570255391051511.4
0.03990752525806392,1.033832705369604e+16,-1.5236400160231336e+20,42.047508516,4.150390625e-09,16.600413765344932,622775263305687.0
0.043899277783870316,1.196892548447782e+16,-1.523505128445697e+20,46.5956238968,4.150390625e-09,17.663318867191062,677614754875406.8
0.048290205562257354,1.3845371506318322e+16,-1.523362750652484e+20,51.7519614945,4.150390625e-09,18.846502231018533,734638785308973.9
0.0531202261184831,1.6004024323497664e+16,-1.523212845813937e+20,57.6015958664,4.150390625e-09,20.16399419267009,793693162702623.9
0.058433248730331414,1.8486428004695148e+16,-1.5230554055635042e+20,64.2419149087,4.150390625e-09,21.631507580161355,854606547240812.0
0.06427757360336456,2.1339996783297972e+16,-1.5228904481548137e+20,71.7844313879,4.150390625e-09,23.266643857808216,917192737969225.1
0.07070633096370102,2.461878470317953e+16,-1.5227180160833218e+20,80.3568662557,4.150390625e-09,25.089125385632585,981253205314107.9
0.07777796406007113,2.8384350147237864e+16,-1.5225381732935628e+20,90.1055457452,4.150390625e-09,27.121057136768048,1046579785002449.9
0.08555676046607825,3.270672715911657e+16,-1.522351002105037e+20,101.198160801,4.150390625e-09,29.387221616620838,1112957447485211.8
0.09411343651268608,3.766551699084467e+16,-1.522156599991489e+20,113.826944944,4.150390625e-09,31.915411176823486,1180167060426181.5
0.1035257801639547,4.335111499573217e+16,-1.5219550763406724e+20,128.212335349,4.150390625e-09,34.73680242053865,1247988069566822.8
0.11387935818035018,4.986608985559606e+16,-1.5217465493065017e+20,144.607804528,4.0283203125e-09,37.88637795995871,1316201034268793.2
0.1252682939983852,5.73267342071983e+16,-1.521531142845089e+20,163.303518898,4.0283203125e-09,41.4034014194942,1384589967050553.2
0.13779612339822375,6.586480804154738e+16,-1.5213089840031485e+20,184.632289847,4.0283203125e-09,45.33195228786329,1452944440232752.8
0.15157673573804614,7.562949882250642e+16,-1.5210802005039573e+20,208.976617847,4.0283203125e-09,49.72152801915067,1521061436273178.8
0.16673540931185077,8.678962514312706e+16,-1.520844918654391e+20,236.775842902,4.0283203125e-09,54.6277216782685,1588746930620262.5
0.18340995024303586,9.953611394876715e+16,-1.520603261578004e+20,268.534750976,4.0283203125e-09,60.11298443277066,1655817206348932.0
0.20175194526733947,1.1408478494918589e+17,-1.5203553477642276e+20,304.833502249,4.0283203125e-09,66.24748332440156,1722099908166080.8
0.22192813979407344,1.3067947986598771e+17,-1.5201012899130353e+20,346.33908522,4.0283203125e-09,73.11006602506416,1787434849548449.0
0.2441219537734808,1.4959557867058714e+17,-1.519841194047355e+20,393.818532186,4.0283203125e-09,80.78934570926782,1851674590965602.2
0.26853514915082893,1.7114395002029872e+17,-1.5195751588619154e+20,448.154168098,4.0283203125e-09,89.38492077609463,1914684809633684.5
0.29538966406591183,1.9567538876158746e+17,-1.519303275276115e+20,510.361206888,4.0283203125e-09,99.00874594766499,1976344482385621.2
0.324929630472503,2.2358559971223834e+17,-1.5190256261595175e+20,581.608057975,4.0283203125e-09,109.78667327935302,2036545903375021.5
0.35742359351975334,2.5532079403850048e+17,-1.5187422862006718e+20,663.23976189,4.0283203125e-09,121.86018386335047,2095194557763082.2
0.3931669528717287,2.9138397249873555e+17,-1.5184533218927696e+20,756.805038766,4.0283203125e-09,135.38833351841723,2152208871520660.5
0.43248464815890164,3.323419787317795e+17,-1.5181587916126188e+20,864.087508361,4.0283203125e-09,150.54993856474806,2207519856202710.5
0.47573411297479185,3.788334157377359e+17,-1.5178587457723607e+20,987.141726716,4.0283203125e-09,167.54603091765938,2261070666149733.0
0.523308524272271,4.315775298568746e+17,-1.5175532270260457e+20,1128.33478426,4.0283203125e-09,186.60261523525293,2312816084130321.0
0.5756403766994982,4.9138417903875635e+17,-1.5172422705157744e+20,1290.3943253,4.0283203125e-09,207.97376476620096,2362721950007293.0
0.6332054143694481,5.59165016166152e+17,-1.5169259041444417e+20,1476.46398153,4.0283203125e-09,231.94509691223,2410764545618935.0
0.696526955806393,6.359460338331812e+17,-1.516604148864335e+20,1690.17896658,3.90625e-09,258.83767439982074,2456929947727971.0
0.7661806513870324,7.228816344715848e+17,-1.516277018972838e+20,1935.72506882,3.90625e-09,289.01238340751837,2501213359609904.0
0.8427997165257357,8.212704092950504e+17,-1.5159445224082198e+20,2217.90908884,3.90625e-09,322.87484608735616,2543618430631321.5
0.9270806881783094,9.32572831436393e+17,-1.515606661039877e+20,2542.2877279,3.90625e-09,360.88093172779276,2584156572007021.5
1.0197897569961403,1.0584310931642949e+18,-1.51526343094844e+20,2915.26948775,3.90625e-09,403.54293841795106,2622846275823252.0
1.1217697326957543,1.2006913444958377e+18,-1.5149148226917725e+20,3344.24598274,3.90625e-09,451.4365255859303,2659712443377131.5
1.2339477059653299,1.3614286212162084e+18,-1.5145608215532867e+20,3837.74352141,3.90625e-09,505.2084873059482,2694785727920171.5
1.357343476561863,1.5429747846680635e+18,-1.514201407769305e+20,4405.59807853,3.90625e-09,565.585466920938,2728101896019462.0
1.4930788242180495,1.74794983411522e+18,-1.5138365567326444e+20,5059.15725716,3.90625e-09,633.3837254419165,2759701210977062.5
1.6423877066398544,1.979296995507727e+18,-1.5134662391703604e+20,5811.51339077,3.90625e-09,709.5200895147736,2789627841068359.5
1.80662747730384,2.2403220386228954e+18,-1.513090421294595e+20,6677.7725704,3.90625e-09,795.0242196613245,2817929294754390.0
1.987291225034224,2.5347373284418534e+18,-1.5127090649267585e+20,7675.36511253,3.90625e-09,891.0523562068179,2844655884455714.0
2.186021347537647,2.866711176926436e+18,-1.512322127596565e+20,8824.40382626,3.90625e-09,998.902719030193,2869860219931773.0
2.404624482291412,3.240923128852666e+18,-1.5119295626191343e+20,10148.0974094,3.90625e-09,1120.032758283927,2893596731776210.5
2.6450879305205532,3.6626258908897295e+18,-1.5115313191553758e+20,11673.2274235,3.90625e-09,1256.078476844131,2915921224995427.5
2.9095977235726087,4.1377146976389243e+18,-1.5111273422633222e+20,13430.6985927,3.90625e-09,1408.8760718532712,2936890462051832.5
3.2005584959298696,4.672805002919857e+18,-1.510717572950607e+20,15456.2715301,3.7841796875e-09,1580.4861727651758,2956561774118178.0
3.520615345522857,5.275319490367463e+18,-1.5103019482407384e+20,17791.3271992,3.7841796875e-09,1773.2209872919925,2974992698695590.0
3.872677880075143,5.953585515635201e+18,-1.5098804012673984e+20,20483.1661615,3.7841796875e-09,1989.6747050489694,2992240641411116.0
4.259946668082658,6.716944224537146e+18,-1.5094528614108273e+20,23586.6213032,3.7841796875e-09,2232.7575518088606,3008362560052898.5
4.685942334890924,7.575872738758799e+18,-1.5090192544866366e+20,27164.9680045,3.7841796875e-09,2505.733935162245,3023414670028909.5
5.154537568380016,8.542120964944417e+18,-1.5085795029885318e+20,31291.2234967,3.7841796875e-09,2812.265174786591,3037452172550775.0
5.669992325218018,9.628864765915546e+18,-1.5081335263721613e+20,36049.6462709,3.7841796875e-09,3156.4573670403615,3050529009661235.5
6.236992557739821,1.085087743681706e+19,-1.5076812413494752e+20,41537.466283,3.7841796875e-09,3542.914993990248,3062697652984368.0
6.860692813513804,1.2224721657052828e+19,-1.50722256214592e+20,47866.8812084,3.7841796875e-09,3976.8009517005125,3074008934700500.0
7.546763094865185,1.3768964344635236e+19,-1.506757400662624e+20,55167.3590609,3.7841796875e-09,4463.903743264363,3084511928692770.5
8.301440404351705,1.5504417127423724e+19,-1.506285666487734e+20,63588.2932135,3.7841796875e-09,5010.712661585523,3094253886535515.5
9.131585444786877,1.7454405470591023e+19,-1.5058072667181328e+20,73302.0624056,3.7841796875e-09,5624.501879346067,3103280227300833.0
10.044744989265565,1.964506986666665e+19,-1.5053221055830478e+20,84507.5559247,3.7841796875e-09,6313.424473293443,3111634573244314.0
11.049220488192123,2.2105702908618273e+19,-1.5048300838985453e+20,97434.2330919,3.7841796875e-09,7086.617540675135,3119358817057352.0
12.154143537011336,2.4869126532182684e+19,-1.5043310984173457e+20,112346.796761,3.7841796875e-09,7954.319719559307,3126493202307501.5
13.36955889071247,2.7972114235156054e+19,-1.5038250411629963e+20,129550.57306,3.7841796875e-09,8928.00260220051,3133076398102940.5
14.706515779783718,3.145586366270459e+19,-1.50331179884471e+20,149399.660245,3.662109375e-09,10020.517730178206,3139145552127592.0
16.177168357762092,3.5366525593456652e+19,-1.5027912524376195e+20,172301.974555,3.662109375e-09,11246.261079475089,3144736312231101.0
17.794886193538304,3.9755796077048365e+19,-1.502263276985586e+20,198723.822493,3.662109375e-09,12621.35718095471,3149882814269672.5
19.574375812892136,4.468157926757278e+19,-1.501727741646668e+20,229205.518638,3.662109375e-09,14163.865276087592,3154617641203300.5
21.53181439418135,5.020872937902052e+19,-1.50118450996282e+20,264369.990239,3.662109375e-09,15894.010180608377,3158971764110112.0
23.684996833599484,5.640988117090473e+19,-1.5006334403029467e+20,304935.355126,3.662109375e-09,17834.44082400739,3162974478850493.0
