t(s),inventory(He/m2),flux_surface_left(He/m2/s),max_ib(He),x_max_ib(m),mean_ib(He),total_bubbles
1e-06,25738.229134826393,-8.218206290251492e+20,14974.4154287,9.765625e-09,10149.19726318709,2.535986686176989
2.1000000000000002e-06,240347.54912872464,-8.431889306535694e+20,7755.54225465,9.765625e-09,4344.383484675327,55.32374155655063
3.3100000000000005e-06,922439.8042717262,-8.488712669098765e+20,4207.21520346,9.765625e-09,1996.8993838091537,461.9360453265005
4.641000000000001e-06,2424735.249324524,-8.517048377262197e+20,2379.0277492,9.765625e-09,974.2340221810955,2488.8632444759787
6.105100000000001e-06,5167584.734005565,-8.534635274067535e+20,1392.86974649,9.765625e-09,499.4257226851264,10347.053624355625
7.715610000000002e-06,9667705.78332855,-8.54681785748423e+20,839.937923548,9.765625e-09,267.39030004881204,36155.78344301836
9.487171000000002e-06,16619314.118770849,-8.555827443290111e+20,519.692478955,9.765625e-09,149.1316642074162,111440.5462253561
1.1435888100000002e-05,27073533.05137907,-8.562781933331665e+20,329.061352602,9.765625e-09,86.70756452664959,312239.57447285944
1.3579476910000003e-05,42809722.81689451,-8.568311702110445e+20,212.901241991,9.765625e-09,52.759476537573,811412.9560479488
1.5937424601000003e-05,67075992.24439062,-8.572803220126193e+20,140.679194422,9.765625e-09,33.81744514199672,1983473.085052521
1.8531167061100006e-05,106107581.97871807,-8.576508762449672e+20,95.043543777,9.765625e-09,23.027832182790867,4607797.257529707
2.1384283767210007e-05,171584820.48462582,-8.579601294767674e+20,65.6864861248,9.765625e-09,16.738053462551168,10251181.289898528
2.452271214393101e-05,285797133.0802249,-8.582204215661426e+20,46.5496175901,9.765625e-09,13.00892707106385,21969308.5770257
2.7974983358324114e-05,490433375.8879636,-8.58440851805165e+20,33.9253172741,9.765625e-09,10.764027813727715,45562254.61090856
3.177248169415653e-05,862101089.2309682,-8.586283205740382e+20,25.507045811,9.765625e-09,9.393997251221133,91771486.21359274
3.5949729863572185e-05,1538946190.7967248,-8.587881884600318e+20,19.8383828974,9.765625e-09,8.54765627282495,180043059.9542712
4.0544702849929404e-05,2765394052.4318743,-8.589247080462654e+20,15.9872377308,9.765625e-09,8.019292187144492,344842660.41147643
4.559917313492235e-05,4965880491.734632,-8.590413151773822e+20,13.349764928,9.765625e-09,7.6865972774910505,646044057.2678895
5.115909044841459e-05,8864036215.070871,-8.591408303970678e+20,11.5304123831,9.765625e-09,7.475856242268851,1185688425.2205365
5.727499949325605e-05,15671716420.141518,-8.592256012856133e+20,10.2674437223,9.765625e-09,7.34208335372325,2134505380.1649117
6.400249944258165e-05,27383195631.545525,-8.592976049355103e+20,9.38606475733,9.765625e-09,7.257511099005017,3773083534.836024
7.140274938683982e-05,47224467658.38592,-8.593585229543125e+20,8.76855604029,9.765625e-09,7.204822414153079,6554563727.430486
7.954302432552381e-05,80326512881.92569,-8.594097971725162e+20,8.33502553734,9.765625e-09,7.173118761323114,11198268919.65596
8.84973267580762e-05,134714987500.18086,-8.594526715717547e+20,8.03087634986,9.765625e-09,7.155488515852237,18826805074.417194
9.834705943388383e-05,222736949405.04572,-8.59488224224047e+20,7.81883539848,8.7890625e-09,7.147523764138844,31162813409.95048
0.00010918176537727222,363077109956.27057,-8.595173918927622e+20,7.67279431687,8.7890625e-09,7.146406055544849,50805552767.962494
0.00012109994191499945,583549783488.4573,-8.595409891801332e+20,7.5745819359,8.7890625e-09,7.150337384910977,81611503356.45631
0.0001342099361064994,924884973093.4972,-8.59559723585786e+20,7.5117145432,8.7890625e-09,7.158182917715567,129206669307.72722
0.00014863092971714937,1445753210086.3088,-8.595742074844887e+20,7.47551873876,8.7890625e-09,7.169244917986701,201660457499.3808
0.00016449402268886432,2229287857969.4644,-8.595849677855193e+20,7.45999913215,8.7890625e-09,7.183118775760938,310350966977.1967
0.00018194342495775077,3391358778475.6396,-8.595924538636447e+20,7.46106259275,8.7890625e-09,7.199600902598245,471048162857.4357
0.00020113776745352586,5090820869266.136,-8.595970442263146e+20,7.476604576,7.8125e-09,7.21862971038155,705233690259.0691
0.00022225154419887848,7541896864887.244,-8.595990522836664e+20,7.50440141248,7.4462890625e-09,7.240244931680512,1041663222177.3079
0.00024547669861876636,11028777105882.982,-8.595987315051064e+20,7.54388019245,6.7138671875e-09,7.264573195273667,1518158990132.8694
0.000271024368480643,15922360096805.559,-8.595962801650801e+20,7.5948171955,5.859375e-09,7.291803295052846,2183597040749.5974
0.00029912680532870735,22698962608868.242,-8.595918458089319e+20,7.65747579015,5.0048828125e-09,7.322181166484007,3100027449849.0615
0.0003300394858615781,31960657696890.93,-8.595855294934275e+20,7.73210649443,4.39453125e-09,7.356005392676922,4344838807310.898
0.0003640434344477359,44456794126828.64,-8.595773897940777e+20,7.8190617598,4.2724609375e-09,7.393625569471378,6012854412102.339
0.00040144777789250956,61106184443280.234,-8.595674465221016e+20,7.91927984492,4.150390625e-09,7.4354426995069,8218230832083.831
0.00044259255568176054,83019462200707.97,-8.595556840668831e+20,8.03414106626,4.0283203125e-09,7.481911075716288,11096023644301.336
0.00048785181124993667,111521219811278.31,-8.595420542787879e+20,8.16531795906,4.0283203125e-09,7.533541308182222,14803293066191.127
0.0005376369923749304,148171754805029.28,-8.595264788318825e+20,8.31478810154,3.90625e-09,7.590904281127596,19519644737638.426
0.0005924006916124235,194788566111803.66,-8.59508851050962e+20,8.48487743922,3.90625e-09,7.654635922215027,25447136622983.574
0.0006526407607736659,253468128832194.56,-8.594890372424476e+20,8.6781182856,3.90625e-09,7.725442739210213,32809527866374.05
0.0007189048368510325,326608897888606.25,-8.594668776221749e+20,8.89742212453,3.90625e-09,7.804108138711449,41850893411957.93
0.0007917953205361358,416936902836191.1,-8.594421869734586e+20,9.14605423042,3.90625e-09,7.891499593523033,52833672218445.414
0.0008719748525897494,527535654437485.1,-8.594147551883025e+20,9.42766895684,3.90625e-09,7.988576772039029,66036250197146.85
0.0009601723378487245,661882355368284.1,-8.593843478408595e+20,9.74635222644,3.90625e-09,8.09640078541582,81750196526899.17
0.001057189571633597,823892577148927.9,-8.593507069184723e+20,10.1066724871,3.90625e-09,8.216144745738376,100277271475319.61
0.001163908528796957,1017975638321962.5,-8.593135517995227e+20,10.5137415369,3.90625e-09,8.349105859598826,121926306294417.53
0.0012812993816766526,1249102919536997.5,-8.592725805285291e+20,10.973286719,3.90625e-09,8.496719305311652,147010025240698.66
0.001410429319844318,1522891317695711.8,-8.59227471406067e+20,11.4917360684,3.90625e-09,8.660574157927286,175841842575964.0
0.00155247225182875,1845704017076630.5,-8.591778848900935e+20,12.0763180833,3.90625e-09,8.84243163496588,208732630714170.34
0.0017087194770116251,2224770780262681.2,-8.591234657973626e+20,12.7351779245,3.90625e-09,9.044245939488663,245987426165510.0
0.0018805914247127878,2668330064855985.0,-8.590638457967043e+20,13.4775120233,3.90625e-09,9.268187979101778,287902022582259.4
0.0020696505671840668,3185795467810379.0,-8.589986461947093e+20,14.3137233378,3.90625e-09,9.51667224389591,334759397630172.75
0.0022776156239024737,3787949287302740.5,-8.58927481022875e+20,15.2555998213,3.90625e-09,9.79238713742867,386825932649696.8
0.0025063771862927214,4487166360235798.0,-8.588499604382254e+20,16.3165190864,3.90625e-09,10.098329076401912,444347408990814.9
0.0027580149049219937,5297671763053959.0,-8.587656944433383e+20,17.5116827399,3.90625e-09,10.437840709390999,507544798828708.56
0.0030348163954141932,6235836435194935.0,-8.586742969155762e+20,18.8583844476,3.90625e-09,10.814653654363177,576609906751760.2
0.0033392980349556127,7320515283167842.0,-8.585753899102692e+20,20.3763164542,3.90625e-09,11.232936219220832,651700956927148.5
0.0036742278384511743,8573432841722489.0,-8.584686081714958e+20,22.0879200408,3.90625e-09,11.697346648954294,732938255060512.1
0.004042650622296292,1.001962210906234e+16,-8.58353603750869e+20,24.01878626,3.90625e-09,12.213092536636385,820400081224787.9
0.004447915684525921,1.1687922747194744e+16,-8.582300506036155e+20,26.1981142633,3.90625e-09,12.78599714298679,914118986301013.9
0.004893707252978514,1.3611545466195346e+16,-8.580976490064334e+20,28.6592709832,3.7841796875e-09,13.422573490469441,1014078669478701.9
0.005384077978276365,1.5828710118611496e+16,-8.579561296265924e+20,31.4404197082,3.7841796875e-09,14.13010723311079,1120211606145522.0
0.005923485776104002,1.83833658477186e+16,-8.578052570691714e+20,34.584967542,3.7841796875e-09,14.916749453021882,1232397574660238.0
0.006516834353714403,2.1326002592805336e+16,-8.576448327405565e+20,38.1426196843,3.7841796875e-09,15.791620699758646,1350463198063722.2
0.007169517789085845,2.4714564387342884e+16,-8.574746968913312e+20,42.1701924377,3.7841796875e-09,16.764927770137774,1474182574849219.2
0.00788746956799443,2.8615476220310788e+16,-8.57294729738921e+20,46.7326470705,3.7841796875e-09,17.848094925170116,1603279024472022.0
0.008677216524793875,3.31047977914734e+16,-8.571048516168715e+20,51.9042754464,3.7841796875e-09,19.05391145909681,1737427921953964.2
0.009545938177273262,3.826951929769264e+16,-8.569050221493015e+20,57.7700603987,3.7841796875e-09,20.396697775467427,1876260545651764.2
0.01050153199500059,4.420901645500044e+16,-8.566952385011999e+20,64.4272374347,3.7841796875e-09,21.892492389997095,2019368816827818.0
0.01155268519450065,5.103668430325421e+16,-8.564755328029031e+20,71.9870885244,3.7841796875e-09,23.559262573539264,2166310772416806.8
0.012708953713950717,5.888177196993695e+16,-8.562459688861543e+20,80.5770035284,3.7841796875e-09,25.417141675553648,2316616585828365.5
0.01398084908534579,6.789144350286044e+16,-8.560066384963412e+20,90.342850355,3.7841796875e-09,27.4886965339321,2469794936222425.5
0.015379933993880369,7.823309313932869e+16,-8.557576571592694e+20,101.451701294,3.7841796875e-09,29.799228786251806,2625339524740397.5
0.016918927393268408,9.009694698983373e+16,-8.554991598809787e+20,114.094970282,3.7841796875e-09,32.37711435592252,2782735545836342.0
0.01861182013259525,1.0369898711415154e+17,-8.552312968471805e+20,128.492024256,3.7841796875e-09,35.254185900205954,2941465941312397.0
0.020474002145854774,1.1928423840219134e+17,-8.549542292673207e+20,144.894341407,3.7841796875e-09,38.466163582312234,3101017291390125.0
0.022522402360440254,1.3713046359585112e+17,-8.546681254803769e+20,163.590300237,3.7841796875e-09,42.053140174373794,3260885228243080.0
0.024775642596484283,1.5755231726551485e+17,-8.543731574085582e+20,184.910696142,3.7841796875e-09,46.06012722098203,3420579289970874.0
0.027254206856132713,1.8090601565932928e+17,-8.540694974142899e+20,209.235096922,3.7841796875e-09,50.53766980442667,3579627164438109.0
0.029980627541745988,2.0759458615825187e+17,-8.537573155876038e+20,236.999165652,3.7841796875e-09,55.542538364386175,3737578300731054.5
0.032979690295920586,2.3807376768837398e+17,-8.534367774670898e+20,268.703098883,3.7841796875e-09,61.138507049438736,3894006889894436.0
0.03627865932551265,2.728586419677707e+17,-8.531080421787216e+20,304.921350772,3.7841796875e-09,67.39722922931907,4048514235494299.0
0.03990752525806392,3.125310850126127e+17,-8.527712609633808e+20,346.313839807,3.7841796875e-09,74.39922209043506,4200730548401694.0
0.043899277783870316,3.577481390228936e+17,-8.524265760553014e+20,393.638864841,3.7841796875e-09,82.23497368908923,4350316209444581.5
0.048290205562257354,4.092514167511592e+17,-8.520741198693245e+20,447.770024349,3.662109375e-09,91.0061874648098,4496962548941061.5
0.0531202261184831,4.6787766388227456e+17,-8.517140144537955e+20,509.718794266,3.662109375e-09,100.82718103974562,4640392194420662.0
0.058433248730331414,5.3457061998860115e+17,-8.513463711672954e+20,580.630296661,3.662109375e-09,111.82645817061997,4780359037867196.0
0.06427757360336456,6.103943354635062e+17,-8.509712905403067e+20,661.830840078,3.662109375e-09,124.1484750016545,4916647872278508.0
0.07070633096370102,6.965481206868494e+17,-8.505888622867166e+20,754.846267529,3.662109375e-09,137.95562431679207,5049073744810454.0
0.07777796406007113,7.943833247764831e+17,-8.501991654341586e+20,861.432307282,3.662109375e-09,153.4304643383159,5177481070674850.0
0.08555676046607825,9.05422164892195e+17,-8.498022685463435e+20,983.609564631,3.662109375e-09,170.77822180034798,5301742548594390.0
0.09411343651268608,1.0313788534801236e+18,-8.493982300143536e+20,1123.70386503,3.662109375e-09,190.22960257861791,5421757915169256.0
0.1035257801639547,1.1741833004061148e+18,-8.489870983973694e+20,1284.39276737,3.662109375e-09,212.04394712523606,5537452572096416.0
0.11387935818035018,1.336007699998159e+18,-8.485689127963778e+20,1468.75919106,3.662109375e-09,236.5127723880072,5648776116861855.0
0.1252682939983852,1.5192963500155727e+18,-8.481437032470631e+20,1680.35324444,3.662109375e-09,263.9637468422759,5755700804335777.0
0.13779612339822375,1.72679909095241e+18,-8.47711491120394e+20,1923.26350735,3.662109375e-09,294.76515079117917,5858219963647360.0
0.15157673573804614,1.9616088003858294e+18,-8.472722895213986e+20,2202.19921131,3.662109375e-09,329.33088026577735,5956346391819581.0
0.16673540931185077,2.227203428881067e+18,-8.468261036783313e+20,2522.58497981,3.662109375e-09,368.12605975750654,6050110742901981.0
0.18340995024303586,2.5274931219160827e+18,-8.463729313159675e+20,2890.67004321,3.662109375e-09,411.67333672774777,6139559928768454.0
0.20175194526733947,2.8668730371245993e+18,-8.459127630080619e+20,3313.65413291,3.662109375e-09,460.55993946096976,6224755545347541.0
0.22192813979407344,3.2502825386917535e+18,-8.45445582505223e+20,3799.95740053,3.5400390625e-09,515.4455894668964,6305772335841274.0
0.2441219537734808,3.6832715318915077e+18,-8.449713670355207e+20,4359.09570324,3.5400390625e-09,577.0713704167429,6382696700464562.0
0.26853514915082893,4.1720747915521336e+18,-8.444900875761118e+20,5002.0653912,3.5400390625e-09,646.2696676554676,6455625260408021.0
0.29538966406591183,4.723695239822967e+18,-8.440017090950778e+20,5741.57390288,3.5400390625e-09,723.9753058202505,6524663482093645.0
0.324929630472503,5.345997242275489e+18,-8.435061907634124e+20,6592.26584583,3.5400390625e-09,811.2380271877795,6589924366351278.0
0.35742359351975334,6.047811118538788e+18,-8.430034861378708e+20,7571.01860533,3.5400390625e-09,909.2364702627206,6651527205888799.0
0.3931669528717287,6.839050205948727e+18,-8.424935433159474e+20,8697.28293025,3.5400390625e-09,1019.293827023547,6709596413351708.0
0.43248464815890164,7.730841973875431e+18,-8.419763050648238e+20,9993.47529879,3.5400390625e-09,1142.8953784014882,6764260421359111.0
0.47573411297479185,8.735674864491727e+18,-8.414517089265576e+20,11485.4298876,3.5400390625e-09,1281.7081312551757,6815650655143217.0
0.523308524272271,9.867562734998243e+18,-8.409196873021421e+20,13202.9191415,3.5400390625e-09,1437.60280661864,6863900577801154.0
0.5756403766994982,1.1142228999237149e+19,-8.403801675173686e+20,15180.2532891,3.5400390625e-09,1612.6784586823653,6909144807664187.0
0.6332054143694481,1.2577312816005968e+19,-8.39833071873619e+20,17456.9706981,3.5400390625e-09,1809.2900371909368,6951518306889714.0
0.696526955806393,1.4192599950359685e+19,-8.39278317686838e+20,20078.6327461,3.5400390625e-09,2030.0792431281172,6991155640057937.0
0.7661806513870324,1.6010281246262303e+19,-8.387158173180202e+20,23097.7389236,3.5400390625e-09,2278.0090691785654,7028190301294763.0
0.8427997165257357,1.8055241998028966e+19,-8.381454781984388e+20,26575.5887283,3.41796875e-09,2556.402463028044,7062754108225445.0
0.9270806881783094,2.0355385898454348e+19,-8.375672028527861e+20,30582.2066809,3.41796875e-09,2868.9856036760107,7094976660870357.0
1.0197897569961403,2.29419976782435e+19,-8.369808889231015e+20,35197.3690146,3.41796875e-09,3219.936339236739,7124984863421779.0
1.1217697326957543,2.5850149039788798e+19,-8.363864291960657e+20,40513.7269658,3.41796875e-09,3613.9383999257925,7152902506672387.0
1.2339477059653299,2.9119153034585846e+19,-8.357837116358243e+20,46638.0177238,3.41796875e-09,4056.242072880283,7178849908705948.0
1.357343476561863,3.27930726444432e+19,-8.351726194240502e+20,53693.1969467,3.41796875e-09,4552.732107049915,7202943611301676.0
1.4930788242180495,3.69212900097445e+19,-8.345530310084772e+20,61820.8923008,3.41796875e-09,5110.00370763447,7225296129351764.0
1.6423877066398544,4.155914351185764e+19,-8.339248201606829e+20,71184.2260733,3.41796875e-09,5735.447581570071,7246015750436148.0
1.80662747730384,4.676864077086149e+19,-8.332878560435709e+20,81971.0620707,3.41796875e-09,6437.34510964936,7265206381549577.0
1.987291225034224,5.261925657470177e+19,-8.326420032888367e+20,94397.7402326,3.41796875e-09,7224.974848437305,7282967439821999.0
2.186021347537647,5.91888258236368e+19,-8.319871220848439e+20,108713.37184,3.41796875e-09,8108.731707840395,7299393783914033.0
2.404624482291412,6.656454276724002e+19,-8.313230682760627e+20,125204.779044,3.41796875e-09,9100.260309798061,7314575682584745.0
2.6450879305205532,7.48440791462189e+19,-8.306496934760926e+20,144202.174924,3.41796875e-09,10212.604212363567,7328598816706446.0
2.9095977235726087,8.413683534268006e+19,-8.299668451983557e+20,166085.694624,3.41796875e-09,11460.372883593644,7341544310755199.0
3.2005584959298696,9.456534031010565e+19,-8.292743670103766e+20,191298.688393,3.2958984375e-09,12859.9285340605,7353488789587139.0
3.520615345522857,1.0626681791734917e+20,-8.285720987195314e+20,220351.319744,3.2958984375e-09,14429.595168088763,7364504456255267.0
3.872677880075143,1.1939493942174717e+20,-8.278598765986225e+20,253816.676862,3.2958984375e-09,16189.892494793909,7374659186905677.0
4.259946668082658,1.3412178410897547e+20,-8.271375336572855e+20,292363.191817,3.2958984375e-09,18163.79765313861,7384016639592984.0
4.685942334890924,1.5064003272825766e+20,-8.264048999586246e+20,336760.124056,3.2958984375e-09,20377.03805278115,7392636375221257.0
5.154537568380016,1.6916542124127188e+20,-8.25661802969394e+20,387892.705447,3.2958984375e-09,22858.41901679001,7400573990572847.0
5.669992325218018,1.8993948562702074e+20,-8.249080679179329e+20,446779.553527,3.2958984375e-09,25640.190336492076,7407881265089197.0
6.236992557739821,2.1323263208547146e+20,-8.241435181205071e+20,514592.690478,3.2958984375e-09,28758.456317868866,7414606324087738.0
6.860692813513804,2.3934757101043243e+20,-8.233679752285536e+20,592680.553714,3.2958984375e-09,32253.634420805818,7420793820867417.0
7.546763094865185,2.6862315761609284e+20,-8.225812593509612e+20,682594.438911,3.2958984375e-09,36170.96817804602,7426485138408148.0
8.301440404351705,3.014386871681139e+20,-8.217831890191816e+20,786118.878998,3.2958984375e-09,40561.10074316067,7431718608350190.0
9.131585444786877,3.382186984602417e+20,-8.2097358098724e+20,905306.534962,3.2958984375e-09,45480.71617035336,7436529741383225.0
10.044744989265565,3.7943834556428177e+20,-8.201522498885213e+20,1042518.25803,3.2958984375e-09,50993.256386493864,7440951460098953.0
11.049220488192123,4.256294050385362e+20,-8.193190077994862e+20,1200469.08039,3.2958984375e-09,57169.722787943276,7445014323705951.0
12.154143537011336,4.773869937822758e+20,-8.184736637800865e+20,1382305.43296,3.173828125e-09,64089.57248905229,7448746734327530.0
13.36955889071247,5.353770816507503e+20,-8.176160234669482e+20,1591730.70201,3.173828125e-09,71841.72047139499,7452175116879611.0
14.706515779783718,6.003448928852911e+20,-8.167458887871608e+20,1832785.60878,3.173828125e-09,80525.66023848079,7455324068220484.0
16.177168357762092,6.73124301470446e+20,-8.158630578401547e+20,2110226.44145,3.173828125e-09,90252.7170779279,7458216475513340.0
17.794886193538304,7.54648337829374e+20,-8.149673249673494e+20,2429520.80052,3.173828125e-09,101147.44968405546,7460873607654925.0
19.574375812892136,8.45960937959322e+20,-8.140584809997386e+20,2796953.35961,3.173828125e-09,113349.21771635792,7463315186490588.0
