t(s),inventory(He/m2),flux_surface_left(He/m2/s),max_ib(He),x_max_ib(m),mean_ib(He),total_bubbles
1e-06,1.647959613909082e-06,-1.0764322873652553e+20,7.00264792182,2.44140625e-08,7.0016238658329355,2.3536820107559942e-07
2.1000000000000002e-06,4.180492413191199e-05,-1.0868379338284537e+20,7.00592163678,3.22265625e-08,7.00277306836117,5.969767079957e-06
3.3100000000000005e-06,0.0003826901812852683,-1.0895542805261727e+20,7.00543959638,3.515625e-08,7.001947358318869,5.46548212520624e-05
4.641000000000001e-06,0.0022173055196373546,-1.0909380916934402e+20,7.00408788767,3.61328125e-08,7.001263823718426,0.00031670075224500343
6.105100000000001e-06,0.00982785584521035,-1.0918179324212083e+20,7.00324793986,3.515625e-08,7.001113588508898,0.0014037560912225527
7.715610000000002e-06,0.0364688777198602,-1.0924435725040296e+20,7.00288358824,3.3203125e-08,7.001227967723804,0.005208925903853512
9.487171000000002e-06,0.11920163680066408,-1.0929195424151373e+20,7.0028303993,3.02734375e-08,7.0014528145572985,0.017025271748289456
1.1435888100000002e-05,0.35424549408178757,-1.093298333402576e+20,7.0029793431,2.63671875e-08,7.001727738233629,0.050594011553376304
1.3579476910000003e-05,0.9776708879971803,-1.0936095976765561e+20,7.00326991147,2.1484375e-08,7.002032424447215,0.1396267296026359
1.5937424601000003e-05,2.5434170623354397,-1.0938715323544432e+20,7.00367244519,1.26953125e-08,7.002362114455669,0.36322272695449614
1.8531167061100006e-05,6.305270347294864,-1.0940960148864288e+20,7.00417730098,4.5166015625e-09,7.002717921607261,0.9004033031003026
2.1384283767210007e-05,15.017748448807954,-1.0942911770941873e+20,7.00474067629,4.39453125e-09,7.00310313462642,2.1444419938003776
2.452271214393101e-05,34.582603250604166,-1.094462802881003e+20,7.00536016287,4.39453125e-09,7.003521851932891,4.93788753454946
2.7974983358324114e-05,77.37671252754025,-1.0946151366000755e+20,7.00604193517,4.39453125e-09,7.003978518851225,11.047537098990329
3.177248169415653e-05,168.8785874222561,-1.094751375073742e+20,7.0067928098,4.39453125e-09,7.00447781115405,24.110089570607382
3.5949729863572185e-05,360.6883560665369,-1.0948739799921584e+20,7.00762020899,4.39453125e-09,7.005024647319426,51.489948176636254
4.0544702849929404e-05,755.8032221069559,-1.0949848834531992e+20,7.00853227654,4.39453125e-09,7.00562424509249,107.88520703724633
4.559917313492235e-05,1557.1447453645449,-1.0950856273759325e+20,7.00953798997,4.39453125e-09,7.006282190759811,222.24978996966107
5.115909044841459e-05,3159.7761626536762,-1.095177460590785e+20,7.01064727546,4.39453125e-09,7.007004510457962,450.94535873891715
5.727499949325605e-05,6324.459742347615,-1.095261408038499e+20,7.0118711305,4.39453125e-09,7.007797740948283,902.488909660198
6.400249944258165e-05,12501.308461813494,-1.095338321110837e+20,7.01322175764,4.39453125e-09,7.008669000267375,1783.6922333379675
7.140274938683982e-05,24428.00935408202,-1.0954089149443408e+20,7.01471271283,4.39453125e-09,7.009626059619806,3484.9233249122803
7.954302432552381e-05,47226.04835467034,-1.0954737964971468e+20,7.01635907107,4.39453125e-09,7.01067741809411,6736.303147080042
8.84973267580762e-05,90392.5153109572,-1.0955334859888345e+20,7.01817762986,4.5166015625e-09,7.011832381754636,12891.4255774519
9.834705943388383e-05,171388.7444862234,-1.095588433478001e+20,7.02018713493,4.5166015625e-09,7.013101148594376,24438.36768568133
0.00010918176537727222,322051.5710173889,-1.0956390318237435e+20,7.02240837733,4.5166015625e-09,7.014494900791732,45912.29669024902
0.00012109994191499945,599950.0533237077,-1.095685626923616e+20,7.02486462691,4.5166015625e-09,7.016025905713432,85511.37943135931
0.0001342099361064994,1108328.9854604458,-1.0957285258782038e+20,7.02758187938,4.5166015625e-09,7.0177076271584236,157933.1947616668
0.00014863092971714937,2030823.2724355925,-1.0957680035613852e+20,7.0305892022,4.5166015625e-09,7.019554848432843,289309.4101100992
0.00016449402268886432,3691337.2797756884,-1.0958043079508733e+20,7.03391912759,4.5166015625e-09,7.021583809004482,525712.9132378817
0.00018194342495775077,6656371.46262881,-1.09583766448132e+20,7.0376080995,4.5166015625e-09,7.023812356692866,947686.4022835223
0.00020113776745352586,11908208.474404149,-1.0958682796133324e+20,7.04169698239,4.5166015625e-09,7.026260117617738,1694814.6346795997
0.00022225154419887848,21135119.05042397,-1.0958963437610936e+20,7.04623164067,4.5166015625e-09,7.028948686443186,3006867.7398637887
0.00024547669861876636,37212658.90198296,-1.0959220336850007e+20,7.05126359908,4.5166015625e-09,7.031901839803317,5291976.445311672
0.000271024368480643,64993381.52833716,-1.0959455144308104e+20,7.05685079561,4.5166015625e-09,7.035145776163184,9238384.476488153
0.00029912680532870735,112588290.5616432,-1.0959669408801813e+20,7.0630584406,4.5166015625e-09,7.038709385741332,15995587.314589087
0.0003300394858615781,193422420.27854472,-1.0959864589668203e+20,7.06995999736,4.5166015625e-09,7.042624554485421,27464536.662735302
0.0003640434344477359,329493066.77670306,-1.0960042066055456e+20,7.07763830234,4.5166015625e-09,7.046926506445449,46756989.231451936
0.00040144777789250956,556470812.2664845,-1.0960203143770112e+20,7.08618684543,4.5166015625e-09,7.051654189231293,78913514.09663296
0.00044259255568176054,931583962.0921344,-1.0960349060075664e+20,7.09571123401,4.5166015625e-09,7.056850707579345,132011289.55322453
0.00048785181124993667,1545644764.1564991,-1.0960480986811988e+20,7.10633086819,4.5166015625e-09,7.062563810399453,218850378.65152806
0.0005376369923749304,2541143553.829977,-1.0960600032183504e+20,7.11818085807,4.5166015625e-09,7.068846437041634,359484899.90022546
0.0005924006916124235,4139089899.754173,-1.0960707241543621e+20,7.13141421863,4.5166015625e-09,7.075757328928495,584967757.8443704
0.0006526407607736659,6678251764.190868,-1.0960803597482759e+20,7.14620438225,4.5166015625e-09,7.083361713161495,942808236.3466067
0.0007189048368510325,10671661356.048536,-1.0960890019503974e+20,7.1627480739,4.5166015625e-09,7.091732065237458,1504803235.3561864
0.0007917953205361358,16886731086.25964,-1.0960967363544075e+20,7.18126859968,4.5166015625e-09,7.100948958617594,2378094982.046897
0.0008719748525897494,26457040271.320778,-1.0961036421567088e+20,7.20201960467,4.5166015625e-09,7.111102009584504,3720526050.0638833
0.0009601723378487245,41035760495.86334,-1.0961097921420873e+20,7.22528936199,4.5166015625e-09,7.1222909265955385,5761595660.552225
0.001057189571633597,63002682624.09517,-1.0961152527107568e+20,7.25140566036,4.5166015625e-09,7.134626674198193,8830550707.29059
0.001163908528796957,95738730464.20647,-1.096120083957503e+20,7.28074136259,4.5166015625e-09,7.148232762499306,13393342612.801603
0.0012812993816766526,143983473208.68582,-1.0961243398091147e+20,7.31372071168,4.5166015625e-09,7.163246674165423,20100309225.41992
0.001410429319844318,214292206951.9411,-1.0961280682217687e+20,7.35082646441,4.5166015625e-09,7.179821441961452,29846453520.353664
0.00155247225182875,315609362575.7648,-1.0961313114356674e+20,7.39260793365,4.5166015625e-09,7.1981273909034265,43846037370.02675
0.0017087194770116251,459974024748.92395,-1.0961341062801346e+20,7.43969002046,4.5166015625e-09,7.21835406020764,63722840541.253876
0.0018805914247127878,663371000250.1857,-1.0961364845187696e+20,7.49278331476,4.5166015625e-09,7.240712321384079,91616814866.54904
0.0020696505671840668,946737085637.8651,-1.0961384732211393e+20,7.55269533935,4.5166015625e-09,7.265436710097142,130306975810.84659
0.0022776156239024737,1337127108716.2505,-1.0961400951451542e+20,7.62034300713,4.5166015625e-09,7.292787990888343,183349236312.21228
0.0025063771862927214,1869038392404.7932,-1.0961413691127477e+20,7.69676635729,4.5166015625e-09,7.323055975656611,255226560962.78287
0.0027580149049219937,2585886260291.3916,-1.0961423103611006e+20,7.78314363427,4.5166015625e-09,7.35656261911825,351507408306.5894
0.0030348163954141932,3541618100348.0894,-1.096142930852452e+20,7.88080777869,4.5166015625e-09,7.393665417562566,479007082459.46533
0.0033392980349556127,4802450548071.163,-1.0961432395277872e+20,7.99126441419,4.5166015625e-09,7.434761141387569,645945506081.8362
0.0036742278384511743,6448714797753.336,-1.0961432424932786e+20,8.11621144527,4.5166015625e-09,7.480289937481562,862094230524.5012
0.004042650622296292,8576799986318.094,-1.0961429431331458e+20,8.25756043229,4.5166015625e-09,7.530739844865292,1138905361624.7334
0.004447915684525921,11301194720830.152,-1.09614234214829e+20,8.41745998654,4.5166015625e-09,7.586651776451722,1489615584559.7175
0.004893707252978514,14756642283443.756,-1.0961414375259128e+20,8.59832153227,4.5166015625e-09,7.648625031569862,1929319612680.1094
0.005384077978276365,19100445346861.598,-1.0961402244509164e+20,8.80284791504,4.5166015625e-09,7.717323418155884,2475009055850.325
0.005923485776104002,24514980062841.69,-1.0961386951742728e+20,9.03406549257,4.5166015625e-09,7.7934820801903815,3145574700832.934
0.006516834353714403,31210505601168.273,-1.0961368388564119e+20,9.29536051955,4.5166015625e-09,7.877915144800549,3961772249066.089
0.007169517789085845,39428381908945.84,-1.0961346414045222e+20,9.59052082191,4.5166015625e-09,7.971524324004938,4946153371220.826
0.00788746956799443,49444834083839.14,-1.0961320853216672e+20,9.92378393951,4.5166015625e-09,8.075308627771541,6122965246652.612
0.008677216524793875,61575425226079.94,-1.0961291495830189e+20,10.2998930911,4.5166015625e-09,8.19037536724968,7518022369560.444
0.009545938177273262,76180420537611.83,-1.0961258095509309e+20,10.7241624772,4.5166015625e-09,8.31795264918335,9158554244125.344
0.01050153199500059,93671244091058.66,-1.096122036936754e+20,11.2025535889,4.5166015625e-09,8.459403584299109,11073031704612.736
0.01155268519450065,114518247060213.58,-1.0961177998138692e+20,11.7417643415,4.5166015625e-09,8.616242453949635,13290973144299.008
0.012708953713950717,139260023683160.08,-1.0961130626839423e+20,12.3493330153,4.5166015625e-09,8.790153100987451,15842730164451.418
0.01398084908534579,168514530363185.03,-1.096107786597125e+20,13.033759182,4.5166015625e-09,8.98300983373122,18759250349522.344
0.015379933993880369,202992285509314.4,-1.0961019293268387e+20,13.8046440408,4.5166015625e-09,9.196901157345822,22071813324554.305
0.016918927393268408,243511954025708.5,-1.0960954456006176e+20,14.6728528986,4.5166015625e-09,9.434156676624353,25811735205656.96
0.01861182013259525,291018651344404.44,-1.0960882873897851e+20,15.6507029217,4.5166015625e-09,9.697377549699382,30010036203388.406
0.020474002145854774,346605337641423.8,-1.0960804042619403e+20,16.7521797662,4.5166015625e-09,9.989470915090545,34697066600176.61
0.022522402360440254,411537713079943.7,-1.0960717438007897e+20,17.9931872681,4.5166015625e-09,10.313688765760778,39902087645514.39
0.024775642596484283,487283069072172.75,-1.096062252097239e+20,19.3918350506,4.5166015625e-09,10.673671803999182,45652806083994.34
0.027254206856132713,575543598119330.1,-1.0960518743137088e+20,20.9687696798,4.5166015625e-09,11.073498879891456,51974863984902.63
0.029980627541745988,678294715431280.1,-1.0960405553203688e+20,22.7475558932,4.5166015625e-09,11.51774269336021,58891289160531.945
0.032979690295920586,797828999225114.0,-1.0960282403977544e+20,24.755115428,4.5166015625e-09,12.011532524627302,66421915570666.89
0.03627865932551265,936806413753096.1,-1.0960148759958248e+20,27.0222321237,4.5166015625e-09,12.560624850136847,74582787475170.05
0.03990752525806392,1098311540570914.9,-1.0960004105352295e+20,29.5841332719,4.5166015625e-09,13.171482800988006,83385565404111.48
0.043899277783870316,1285918610652321.5,-1.0959847952328095e+20,32.4811586682,4.5166015625e-09,13.851365530486385,92836955881501.95
0.048290205562257354,1503765204489068.5,-1.0959679849298854e+20,35.7595305202,4.5166015625e-09,14.608428679699477,102938189825902.88
0.0531202261184831,1756636226712733.5,-1.0959499388956972e+20,39.4722534787,4.5166015625e-09,15.45184300214183,113684576426853.45
0.058433248730331414,2050056155941545.8,-1.0959306215793564e+20,43.6800942205,4.5166015625e-09,16.391904768471125,125065157765234.78
0.06427757360336456,2390396429872480.0,-1.095910003304036e+20,48.4527916096,4.5166015625e-09,17.440193948774724,137062491213890.39
0.07070633096370102,2784993907927028.0,-1.0958880607953215e+20,53.8703937444,4.5166015625e-09,18.609729020887197,149652577143987.7
0.07777796406007113,3242284382848929.0,-1.0958647775904663e+20,60.0248100492,4.5166015625e-09,19.915146534308292,162804947343137.5
0.08555676046607825,3771952299350714.0,-1.0958401442567619e+20,67.0215972036,4.5166015625e-09,21.372902791940085,176482920269171.47
0.09411343651268608,4385098531460060.0,-1.0958141584052827e+20,74.982014522,4.5166015625e-09,23.001500445430384,190644020891742.75
0.1035257801639547,5094428322698492.0,-1.0957868244907057e+20,84.0453899966,4.5166015625e-09,24.821743179601444,205240554051220.0
0.11387935818035018,5914461784187306.0,-1.0957581534026818e+20,94.3718447303,4.5166015625e-09,26.857022084655593,220220312048909.4
0.1252682939983852,6861769677438664.0,-1.0957281618699194e+20,106.145431017,4.5166015625e-09,29.13363778459545,235527390303000.78
0.13779612339822375,7955237582785111.0,-1.0956968717128076e+20,119.577748056,4.5166015625e-09,31.68116291043775,251103079936632.0
0.15157673573804614,9216361972925282.0,-1.0956643089918517e+20,134.912109362,4.5166015625e-09,34.53285008246959,266886803461493.53
0.16673540931185077,1.0669582176031698e+16,-1.09563050310532e+20,152.428347623,4.5166015625e-09,37.726091203594194,282817059378131.4
0.18340995024303586,1.2342652727070672e+16,-1.0955954858881217e+20,172.448356234,4.5166015625e-09,41.302934574445125,298832343373182.4
0.20175194526733947,1.4267061173165782e+16,-1.0955592907544453e+20,195.342482405,4.5166015625e-09,45.31066713171519,314872017480836.3
0.22192813979407344,1.6478497023891976e+16,-1.0955219519115305e+20,221.536904872,4.5166015625e-09,49.8024699977184,330877103578334.7
0.2441219537734808,1.9017378226518788e+16,-1.0954835036570981e+20,251.522150295,4.5166015625e-09,54.83815652665433,346790983341595.5
0.26853514915082893,2.192944230694915e+16,-1.0954439797646936e+20,285.862926856,4.5166015625e-09,60.48500315685426,362559992765149.94
0.29538966406591183,2.5266410158229732e+16,-1.0954034129612236e+20,325.209481871,4.5166015625e-09,66.81868464582563,378133905091892.6
0.324929630472503,2.9086731390130844e+16,-1.0953618345049758e+20,370.310722997,4.5166015625e-09,73.92432669964734,393466301131283.8
0.35742359351975334,3.345642118693606e+16,-1.0953192738740242e+20,422.029380679,4.5166015625e-09,81.89769064585315,408514830187462.8
0.3931669528717287,3.8449999769418936e+16,-1.0952757585710883e+20,481.359533665,4.5166015625e-09,90.84650669244871,423241367987735.25
0.43248464815890164,4.415154683593839e+16,-1.0952313140431205e+20,549.446871271,4.5166015625e-09,100.89197453594836,437612080039200.25
0.47573411297479185,5.065588478312917e+16,-1.0951859637055128e+20,627.61212707,4.5166015625e-09,112.17045270718997,451597399855035.06
0.523308524272271,5.806990609637282e+16,-1.0951397290542791e+20,717.378190826,4.5166015625e-09,124.83536113771845,465171931791906.75
0.5756403766994982,6.651406207243309e+16,-1.0950926298454467e+20,820.501490545,4.5166015625e-09,139.05932500009027,478314288325431.7
0.6332054143694481,7.61240320104227e+16,-1.09504468431876e+20,939.010786681,4.39453125e-09,155.03659183416892,491006872054094.9
0.696526955806393,8.70525942038784e+16,-1.0949959094418573e+20,1075.24284888,4.39453125e-09,172.98575810592277,503235614058900.06
0.7661806513870324,9.947172251189282e+16,-1.0949463211506178e+20,1231.89691975,4.39453125e-09,193.15284532670847,514989682619695.94
0.8427997165257357,1.1357493501564845e+17,-1.0948959345609984e+20,1412.08972187,4.39453125e-09,215.81476930799556,526261179342931.5
0.9270806881783094,1.2957992432609832e+17,-1.094844764127567e+20,1619.4209445,4.39453125e-09,241.28324872106947,537044842577930.1
1.0197897569961403,1.477315025639568e+17,-1.0947928237250373e+20,1858.04914097,4.39453125e-09,269.90920077104516,547337779304798.25
1.1217697326957543,1.683048979680654e+17,-1.0947401266325191e+20,2132.77949215,4.39453125e-09,302.0876727334361,557139245190513.4
1.2339477059653299,1.916094446015863e+17,-1.0946866854071763e+20,2449.16513309,4.39453125e-09,338.263359026655,566450487433631.8
1.357343476561863,2.179927118249779e+17,-1.0946325116447962e+20,2813.6239376,4.39453125e-09,378.936755493964,575274656428651.1
1.4930788242180495,2.478451261949982e+17,-1.0945776156387515e+20,3233.57289675,4.39453125e-09,424.6710069776081,583616781279505.9
1.6423877066398544,2.816051453190363e+17,-1.0945220059641951e+20,3717.58253209,4.39453125e-09,476.09951240906116,591483792735085.2
1.80662747730384,3.1976505100522886e+17,-1.0944656890283062e+20,4275.55417846,4.39453125e-09,533.9343645269889,598884567560111.8
1.987291225034224,3.6287743782741126e+17,-1.0944086686372205e+20,4918.92347673,4.39453125e-09,598.975719407064,605829962834937.0
2.186021347537647,4.1156248296242074e+17,-1.0943509456334723e+20,5660.89405335,4.39453125e-09,672.1222139383556,612332808568900.6
2.404624482291412,4.665160938248087e+17,-1.0942925176529592e+20,6516.70614116,4.39453125e-09,754.3825761208209,618407832566498.9
2.6450879305205532,5.2851904158974534e+17,-1.0942333790376321e+20,7503.94581436,4.39453125e-09,846.8886018365542,624071501781467.1
2.9095977235726087,5.984472011603602e+17,-1.0941735209209353e+20,8642.90156036,4.39453125e-09,950.9097004193973,629341777559337.1
3.2005584959298696,6.772830315739878e+17,-1.0941129314803081e+20,9956.97607195,4.39453125e-09,1067.869237792281,634237795794367.8
3.520615345522857,7.661284454332817e+17,-1.0940515963287183e+20,11473.1623969,4.39453125e-09,1199.362928584292,638779494658557.6
3.872677880075143,8.6621923200486e+17,-1.093989498999306e+20,13222.5949151,4.39453125e-09,1347.179547005348,642987220174462.2
4.259946668082658,9.789412165902184e+17,-1.0939266214669956e+20,15241.1870362,4.39453125e-09,1513.3242413962855,646881342287220.1
4.685942334890924,1.1058483591793036e+18,-1.0938629446504556e+20,17570.3752789,4.2724609375e-09,1700.0447519756522,650481911075680.5
5.154537568380016,1.2486830188176758e+18,-1.0937984488465929e+20,20258.046915,4.2724609375e-09,1909.860849325273,653808375232582.0
5.669992325218018,1.4093986370867113e+18,-1.0937331140658045e+20,23359.2979711,4.2724609375e-09,2145.597336966331,656879374710385.2
6.236992557739821,1.5901851250402004e+18,-1.0936669202553887e+20,26937.7867676,4.2724609375e-09,2410.4209986328383,659712608686256.1
6.860692813513804,1.7934972731572434e+18,-1.0935998474167137e+20,31066.9801938,4.2724609375e-09,2707.881921510861,662324770851368.1
7.546763094865185,2.0220865435512e+18,-1.0935318756353078e+20,35831.6680053,4.2724609375e-09,3041.9596906094584,664731537960016.1
8.301440404351705,2.279036647980433e+18,-1.093462985049988e+20,41329.708635,4.2724609375e-09,3417.1150246343454,666947595135257.5
9.131585444786877,2.5678033643736494e+18,-1.0933931557877006e+20,47674.0418318,4.2724609375e-09,3838.347507564816,668986682240961.2
10.044744989265565,2.8922590990133325e+18,-1.0933223678862975e+20,54995.0090913,4.2724609375e-09,4311.260160377009,670861648664786.6
11.049220488192123,3.256742523961283e+18,-1.0932506012233241e+20,63443.0177464,4.2724609375e-09,4842.131341730426,672584507548162.8
12.154143537011336,3.6661151000511447e+18,-1.0931778354972954e+20,73191.6597813,4.2724609375e-09,5437.996656489538,674166486600560.1
13.36955889071247,4.1258228700465864e+18,-1.0931040500291106e+20,84441.2384226,4.2724609375e-09,6106.738490612685,675618069512690.9
14.706515779783718,4.641966612673433e+18,-1.0930292238952137e+20,97422.8828632,4.2724609375e-09,6857.187736429612,676949033787195.5
16.177168357762092,5.221380108426411e+18,-1.0929533358498606e+20,112403.282362,4.2724609375e-09,7699.237332639941,678168483817355.8
17.794886193538304,5.871717732944824e+18,-1.092876364316837e+20,129690.146705,4.2724609375e-09,8643.969393308022,679284882416472.2
