t(s),inventory(He/m2),flux_surface_left(He/m2/s),max_ib(He),x_max_ib(m),mean_ib(He),total_bubbles
1e-06,143386.17304495492,-4.1638859246349336e+21,7.01977450039,3.662109375e-09,7.011985010113214,20448.72783358101
1.9090909090909087e-06,1500536.2050052457,-4.1993723861687216e+21,7.03049375677,3.662109375e-09,7.018462553697206,213798.4200278719
2.9090909090909084e-06,9898090.336229276,-4.2084048194494776e+21,7.03966987401,3.7841796875e-09,7.024169382013831,1409147.4447604353
4.009090909090909e-06,45618482.224303246,-4.2127837902641703e+21,7.04890192163,3.90625e-09,7.029936849330318,6489173.829299608
5.219090909090909e-06,165487252.41178185,-4.2154056475129896e+21,7.05885185736,3.90625e-09,7.036032281430719,23519967.75917739
6.55009090909091e-06,507176978.24809355,-4.2171506102277405e+21,7.0698558239,3.90625e-09,7.0425968017743985,72015620.44845577
8.01419090909091e-06,1371220169.7218077,-4.2183881107428454e+21,7.08214974513,3.90625e-09,7.049731740187571,194506716.03644934
9.62470090909091e-06,3363580557.142479,-4.219303568114386e+21,7.0959420917,3.90625e-09,7.057525448272864,476594888.93031526
1.139626190909091e-05,7631125803.5667095,-4.2200014018170396e+21,7.11144506709,3.90625e-09,7.066064309035427,1079968348.6900527
1.3344979009090911e-05,16233995970.148642,-4.2205453436563426e+21,7.12889018587,4.0283203125e-09,7.075438204461459,2294415625.0155926
1.5488567819090912e-05,32712451898.69381,-4.2209766612981457e+21,7.14853516183,4.0283203125e-09,7.085743745144806,4616657485.124067
1.7846515510090912e-05,62920731225.63597,-4.221323302075817e+21,7.17067129157,4.0283203125e-09,7.097086534337294,8865712841.630348
2.0440257970190915e-05,116215583028.93002,-4.221604860616404e+21,7.19562959561,4.0283203125e-09,7.109575587711007,16346346078.633743
2.3293374676300916e-05,207101856052.18405,-4.2218354531230443e+21,7.22378914956,4.0283203125e-09,7.1233525055282785,29073649786.593716
2.643180305302192e-05,357446785746.35364,-4.222025468238652e+21,7.25558017942,4.0283203125e-09,7.138558048610918,50072687412.818436
2.9884074267415023e-05,599381775028.5663,-4.222182680421852e+21,17.4420536702,2.625e-06,7.155350039241274,83766939666.32588
3.3681572603247435e-05,979006411609.1902,-4.2223129843121253e+21,77.7422107191,2.875e-06,7.173904783567709,136467717532.53088
3.7858820772663094e-05,1560997165090.2656,-4.2224208945719626e+21,938.950700759,3.25e-06,7.19441884322015,216973351024.91458
4.245379375902031e-05,2434199102875.178,-4.222509895441319e+21,1293.43805834,2.625e-06,7.2171110991994185,337281644887.68915
4.750826404401326e-05,3718242850695.768,-4.2225826909024373e+21,772.19164413,3.25e-06,7.242222968462206,513411816632.49585
5.30681813575055e-05,5571190959380.415,-4.2226413871705993e+21,12910.7956094,3.875e-06,7.270027709992364,766323208331.5219
5.918409040234696e-05,8198157095872.853,-4.222687627807405e+21,16222.1495711,3.875e-06,7.300826212020231,1122908128175.3066
6.591159035167256e-05,11860810793820.229,-4.22272269476593e+21,22738.1486995,4.125e-06,7.334952656179383,1617026223588.2332
7.331184029593073e-05,16887635663734.576,-4.2227475842976024e+21,8859.58140503,4.125e-06,7.372778005131736,2290539014192.4976
8.145211523461472e-05,23684797747634.023,-4.2227630638671525e+21,4399.62155215,4.125e-06,7.414713829738918,3194296946786.953
9.04064176671671e-05,32747493763291.594,-4.222769714433364e+21,2252.75247354,4.125e-06,7.461216512713134,4389028747187.98
0.00010025615034297473,44671697148863.836,-4.222767961301384e+21,1166.36079862,4.125e-06,7.512791874321084,5946084744015.45
0.00011109085628636313,60166304993308.805,-4.222758096010971e+21,610.568820571,4.125e-06,7.570000276630682,7947992443150.625
0.00012300903282409036,80065808983639.69,-4.222740291244935e+21,324.191161496,4.125e-06,7.633462276057229,10488793431883.52
0.00013611902701559032,105343761656269.81,-4.2227146104215747e+21,175.488811136,4.125e-06,7.703864909602768,13674144457668.277
0.00015054002062624028,137127475061067.05,-4.222681013401641e+21,97.5857358022,4.125e-06,7.781968718119147,17621180452934.266
0.00016640311359795523,176714560104791.6,-4.222639359544822e+21,56.3584153673,4.125e-06,7.868615629876845,22458151270448.754
0.00018385251586684168,225592079431431.56,-4.222589409162888e+21,34.2918190749,4.125e-06,7.964737849169836,28323854934528.07
0.00020304685836261676,285459235531177.9,-4.2225308242235527e+21,22.3325501373,4.125e-06,8.071367916899325,35366896723107.02
0.00022416063510796936,358254644105353.1,-4.222463168962518e+21,15.76257716,4.125e-06,8.18965013233504,43744804517455.9
0.00024738578952785724,446189351033507.8,-4.2223859108723934e+21,12.1004214953,4.125e-06,8.320853547053947,53623026593405.69
0.0002729334593897339,551786844973585.4,-4.2222984223711266e+21,11.1698171541,4.0283203125e-09,8.466386763273453,65173829214511.56
0.00030103589623779823,677931405677113.6,-4.222199983322825e+21,11.717841952,4.0283203125e-09,8.627814789783756,78575099511855.08
0.00033194857677066897,827926221264758.9,-4.2220897844981646e+21,12.3356927209,4.0283203125e-09,8.80687823029453,94009046067742.72
0.00036595252535682684,1005562816463051.6,-4.221966932019899e+21,13.0320417997,4.0283203125e-09,9.00551510240462,111660777315730.66
0.0004033568688016005,1215203466674290.8,-4.2218304528349114e+21,13.8166867213,4.0283203125e-09,9.2258856121093,131716728102426.66
0.0004445016465908515,1461878435205328.0,-4.221679301275268e+21,14.7007170345,4.0283203125e-09,9.470400240357408,154362898938066.16
0.0004897609021590276,1751400065073920.2,-4.221512366802514e+21,15.6967069372,4.0283203125e-09,9.741751536193657,179782871546961.62
0.0005395460832840213,2090495981536289.5,-4.2213284830576116e+21,16.8189373683,4.0283203125e-09,10.04295005676013,208155568804121.53
0.0005943097825215144,2486963913657817.5,-4.221126438350626e+21,18.0836517988,4.0283203125e-09,10.377364948721562,239652737081796.34
0.0006545498516827568,2949850918751960.0,-4.2209049877109984e+21,19.5093506521,4.0283203125e-09,10.748769728855951,274436144150790.03
0.0007208139277601234,3489660088544701.5,-4.2206628665752373e+21,21.1171300764,4.0283203125e-09,11.161393893368313,312654505511012.25
0.0007937044114452267,4118588128157051.5,-4.220398806113527e+21,22.9310716931,4.0283203125e-09,11.619981065361555,354440175503754.3
0.0008738839434988404,4850797528391967.0,-4.220111550092478e+21,24.9786909666,4.0283203125e-09,12.129854477210328,399905665604289.5
0.0009620814287578153,5702727401066264.0,-4.2197998730448606e+21,27.2914551872,3.90625e-09,12.696990679192341,449140079342723.1
0.0010590986625426879,6693447421858145.0,-4.2194625993783383e+21,29.9054303686,3.90625e-09,13.328102468495251,502205579352350.1
0.0011658176197060477,7845059733929705.0,-4.219098622916548e+21,32.8618128719,3.90625e-09,14.030732145882357,559134024679675.7
0.0012832084725857436,9183154120066942.0,-4.218706926241839e+21,36.2078528419,3.90625e-09,14.813356334597207,619923933013027.2
0.0014123384107534091,1.0737322266126806e+16,-4.2182865991145934e+21,39.9977148106,3.90625e-09,15.685503742432104,684537930208796.6
0.001554381342737841,1.254173753250192e+16,-4.2178368551931903e+21,44.2935158398,3.90625e-09,16.65788741877326,752900846140160.4
0.0017106285679207162,1.4635807344752724e+16,-4.217357046282671e+21,49.1665191582,3.90625e-09,17.742553259110434,824898600049997.9
0.0018825005156218788,1.7064906133953716e+16,-4.216846673404863e+21,54.6985065613,3.90625e-09,18.953046744385432,900377990098555.0
0.002071559658093158,1.988119772756622e+16,-4.2163053941085815e+21,60.983356423,3.90625e-09,20.304600174801656,979147461974607.9
0.0022795247148115648,2.3144557238448244e+16,-4.2157330256178415e+21,68.1288583272,3.90625e-09,21.814342969445676,1060978883061742.4
0.0025082862772018125,2.6923603846417784e+16,-4.215129543635322e+21,76.2588001694,3.90625e-09,23.5015379557172,1145610295681440.8
0.0027599239958310848,3.1296857433447264e+16,-4.2144950768579626e+21,85.5153691913,3.90625e-09,25.387846967580053,1232749570036913.2
0.0030367254863232843,3.635403383570154e+16,-4.2138298974990605e+21,96.0619149173,3.90625e-09,27.49762951103183,1322078829417517.2
0.0033412071258647038,4.21974955251854e+16,-4.213134408324287e+21,108.086129488,3.90625e-09,29.858278741965588,1413259481226462.5
0.0036761369293602654,4.894387684058906e+16,-4.2124091268781504e+21,121.803709572,3.90625e-09,32.50059954001042,1505937660637178.5
0.004044559713205383,5.67259054610773e+16,-4.211654667688918e+21,137.462574069,3.90625e-09,35.459234057570555,1599749880918995.8
0.004449824775435013,6.56944446711992e+16,-4.21087172328756e+21,155.347723361,3.90625e-09,38.773140783145486,1694328685896817.8
0.004895616343887605,7.602078411803554e+16,-4.210061044861127e+21,175.786839188,3.90625e-09,42.486133890471585,1789308114360690.5
0.005385987069185457,8.789921023881867e+16,-4.2092234232910913e+21,199.156739574,3.90625e-09,46.64749045993623,1884328811092463.5
0.005925394867013094,1.0154989137295027e+17,-4.208359671215559e+21,225.89082088,3.90625e-09,51.31263406732745,1979042651361580.2
0.006518743444623495,1.1722211681050128e+17,-4.207470606616385e+21,256.487639464,3.90625e-09,56.54390424998254,2073116781824231.2
0.007171426879994936,1.3519793372348032e+17,-4.206557038283649e+21,291.52080891,3.90625e-09,62.411422495868,2166237017469537.8
0.007889378658903521,1.5579623113934032e+17,-4.205619753364701e+21,331.650415894,3.90625e-09,68.99406667252599,2258110568823444.5
0.008679125615702965,1.793773259203666e+17,-4.204659507073787e+21,377.636189023,3.90625e-09,76.38056723696995,2348468103985798.0
0.009547847268182353,2.0634811218852262e+17,-4.2036770145282514e+21,430.352691084,3.90625e-09,84.67074016292817,2437065174952481.5
0.010503441085909681,2.3716784287231587e+17,-4.2026729445919723e+21,490.806846774,3.90625e-09,93.97687330818279,2523683056517109.0
0.01155459428540974,2.7235462014875728e+17,-4.2016479155464653e+21,560.158166035,3.90625e-09,104.42528494412298,2608129058919894.5
0.012710862804859807,3.124926806175366e+17,-4.200602492373028e+21,639.742078604,3.90625e-09,116.15807540610064,2690236382834597.5
0.01398275817625488,3.58240571194795e+17,-4.199537185412071e+21,731.096859327,3.90625e-09,129.33509532332758,2769863588063408.0
0.01538184308478946,4.10340323081637e+17,-4.1984524501643003e+21,835.994697609,3.90625e-09,144.1361566807998,2846893746378752.5
0.0169208364841775,4.696277438928602e+17,-4.197348688008517e+21,956.477549485,3.90625e-09,160.76351608618208,2921233345264122.5
0.01861372922350434,5.3704396228536557e+17,-4.196226247628824e+21,1094.90442179,3.7841796875e-09,179.4446630989914,2992811003741599.0
0.020475911236763865,6.136483753836177e+17,-4.195085426966465e+21,1253.99832581,3.7841796875e-09,200.43545036984645,3061576054791229.0
0.022524311451349345,7.006331671614225e+17,-4.19392647553619e+21,1436.8757813,3.7841796875e-09,224.0236066808288,3127497041682886.0
0.024777551687393373,7.993395859304334e+17,-4.1927495969718733e+21,1647.1421546,3.7841796875e-09,250.5326788273786,3190560168325156.5
0.027256115947041804,9.112761914569906e+17,-4.191554951689798e+21,1888.9541228,3.7841796875e-09,280.3264536971036,3250767736824568.5
0.029982536632655078,1.0381393072622048e+18,-4.1903426595800807e+21,2167.10439952,3.7841796875e-09,313.8139179486427,3308136599066016.5
0.03298159938682968,1.181835941670591e+18,-4.1891128026564725e+21,2487.11949642,3.7841796875e-09,351.4548194498585,3362696643399427.5
0.03628056841642174,1.3445094725138586e+18,-4.1878654276121353e+21,2855.37252066,3.7841796875e-09,393.7659021841221,3414489332509993.5
0.03990943434897301,1.528568425463862e+18,-4.1866005482439165e+21,3279.21331358,3.7841796875e-09,441.3278947720112,3463566304263446.5
0.04390118687477941,1.7367187152065283e+18,-4.185318147719747e+21,3767.11858701,3.7841796875e-09,494.7933421910654,3509988043727336.5
0.04829211465316645,1.97199976257122e+18,-4.1840181806730885e+21,4328.86511789,3.7841796875e-09,554.8953808289244,3553822631619981.0
0.05312213520939219,2.2378249498559898e+18,-4.182700575114589e+21,4975.72952718,3.7841796875e-09,622.4575688116745,3595144572068087.5
0.05843515782124051,2.5380269315570724e+18,-4.1813652341547514e+21,5720.71870445,3.7841796875e-09,698.4048967612694,3634033700689569.5
0.06427948269427365,2.8769083792199767e+18,-4.180012037533285e+21,6578.83555578,3.7841796875e-09,783.7761189255127,3670574172588930.0
0.07070824005461011,3.2592988079560074e+18,-4.1786408429523294e+21,7567.38546166,3.7841796875e-09,879.7375611819115,3704853528792380.5
0.07777987315098023,3.690618209184524e+18,-4.17725148721363e+21,8706.32964747,3.7841796875e-09,987.5985809584762,3736961838890792.0
0.08555866955698735,4.1769483003419607e+18,-4.175843787164914e+21,10018.6926078,3.7841796875e-09,1108.8288748794796,3766990917147571.5
0.09411534560359519,4.725112298732546e+18,-4.174417540468542e+21,11531.0318063,3.7841796875e-09,1245.0778532013017,3795033609009668.5
0.1035276892548638,5.342764234603096e+18,-4.172972526214344e+21,13274.1230617,3.662109375e-09,1398.1963261520127,3821183144792663.0
0.11388126727125929,6.038488939265576e+18,-4.171508505406554e+21,15283.4667096,3.662109375e-09,1570.2607764630116,3845532557252802.5
0.12527020308929432,6.821913979190978e+18,-4.170025221359374e+21,17599.6452542,3.662109375e-09,1763.6005250539133,3868174159781695.0
0.13779803248913286,7.70383495815881e+18,-4.168522400035933e+21,20269.6900657,3.662109375e-09,1980.8281334194412,3889199082032383.5
0.15157864482895525,8.696355778668033e+18,-4.1669997503611016e+21,23347.8422609,3.662109375e-09,2224.873427228917,3908696859892545.0
0.16673731840275988,9.81304564302614e+18,-4.1654569645316254e+21,26896.654777,3.662109375e-09,2499.02157150324,3926755076837245.5
0.18341185933394497,1.1069114786202962e+19,-4.163893718338971e+21,30988.2621139,3.662109375e-09,2806.9556790530496,3943459053809222.5
0.20175385435824855,1.2481611169316323e+19,-4.1623096715135565e+21,35705.8431283,3.662109375e-09,3152.804491295279,3958891584865909.0
0.22193004888498252,1.4069640627474473e+19,-4.160704468094901e+21,41145.3061012,3.662109375e-09,3541.195734849932,3973132715882115.5
0.2441238628643899,1.585461326194478e+19,-4.1590777368310406e+21,47417.2297098,3.662109375e-09,3977.3158293020824,3986259563582825.0
0.268537058241738,1.78605191979588e+19,-4.1574290916125447e+21,54649.0986247,3.662109375e-09,4466.976702178964,3998346172086939.0
0.2953915731568209,2.0114237200037335e+19,-4.155758131950448e+21,62987.878312,3.662109375e-09,5016.690557663027,4009463403979085.0
0.32493153956341214,2.2645880051118547e+19,-4.1540644435127687e+21,72602.9803961,3.662109375e-09,5633.7535471087085,4019678862725653.0
0.35742550261066247,2.548918106506607e+19,-4.152347598739846e+21,83689.6777631,3.662109375e-09,6326.339403419039,4029056843091689.0
0.39316886196263784,2.868192661987437e+19,-4.150607157562452e+21,96473.0376444,3.662109375e-09,7103.604229180836,4037658306195061.5
0.4324865572498108,3.226644017709513e+19,-4.1488426682465927e+21,111212.4514,3.662109375e-09,7975.803771520791,4045540876056772.5
0.475736022065701,3.629012389844089e+19,-4.1470536683814765e+21,128206.851828,3.662109375e-09,8954.424676249915,4052758855037806.5
0.5233104333631802,4.080606469032639e+19,-4.145239686011209e+21,147804.725449,3.5400390625e-09,10052.331391129113,4059363256402046.0
0.5756422857904073,4.587371230982618e+19,-4.1434002408837837e+21,170402.486033,3.5400390625e-09,11283.930584153126,4065401853344445.0
0.6332073234603572,5.155963806061865e+19,-4.141534845755058e+21,196456.433861,3.5400390625e-09,12665.355158697734,4070919245024951.5
0.6965288648973021,5.7938383606327845e+19,-4.1396430076439083e+21,226494.182258,3.5400390625e-09,14214.670184639457,4075956941226589.5
0.7661825604779415,6.5093410544753254e+19,-4.137724228895139e+21,261123.685595,3.5400390625e-09,15952.10332535188,4080553467911880.5
0.8428016256166448,7.311816263605115e+19,-4.1357780078791376e+21,301045.450757,3.5400390625e-09,17900.30262853421,4084744495855405.0
0.9270825972692185,8.211725398024972e+19,-4.133803839154236e+21,347066.597298,3.5400390625e-09,20084.624870041924,4088562993413693.5
1.0197916660870494,9.220779801704165e+19,-4.131801212949573e+21,400117.040093,3.5400390625e-09,22533.458002814,4092039402275791.0
1.1217716417866634,1.0352089399851133e+20,-4.1297696138980177e+21,461268.107062,3.5400390625e-09,25278.58167831758,4095201831964537.0
1.233949615056239,1.1620328958987166e+20,-4.12770851905492e+21,531753.949397,3.5400390625e-09,28355.570287399307,4098076265512821.0
1.3573453856527722,1.3041924051082058e+20,-4.1256173953625253e+21,612996.154338,3.5400390625e-09,31804.243521714892,4100686765958593.0
1.4930807333089586,1.4635259066604588e+20,-4.123495696836381e+21,706632.032694,3.5400390625e-09,35669.17009382485,4103055671917157.5
1.6423896157307638,1.642090990514586e+20,-4.1213428618315474e+21,814547.12682,3.5400390625e-09,40000.230977396044,4105203771054533.0
1.8066293863947493,1.8421904288595208e+20,-4.1191583107712984e+21,938912.571427,3.5400390625e-09,44853.24933880103,4107150442868593.0
1.9872931341251334,2.066401299317811e+20,-4.1169414446803164e+21,1082228.04094,3.5400390625e-09,50290.69522582472,4108913766331661.0
2.1860232566285562,2.3176075685988627e+20,-4.1146916447633864e+21,1247371.13449,3.5400390625e-09,56382.474056856256,4110510592816094.5
2.404626391382321,2.5990365482774784e+20,-4.112408273127602e+21,1437673.80675,3.41796875e-09,63206.809016817446,4111956589338266.0
2.6450898396114626,2.9142996821633086e+20,-4.110090674586249e+21,1657000.65879,3.41796875e-09,70851.22862168867,4113266260666079.5
2.909599632663518,3.2674381778215286e+20,-4.1077381793334155e+21,1909697.03976,3.41796875e-09,79413.67197617625,4114452960696422.0
3.200560405020779,3.6629740539807826e+20,-4.1053501061637053e+21,2200819.82693,3.41796875e-09,89003.72564064481,4115528903554160.5
3.520617254613766,4.1059672417417835e+20,-4.10292576584957e+21,2536189.12569,3.41796875e-09,99744.0075728762,4116505183273121.5
3.8726797891660523,4.602079451735938e+20,-4.100464464288893e+21,2922503.37674,3.41796875e-09,111771.71535277739,4117391808124900.5
4.259948577173567,5.157645602840783e+20,-4.097965505096933e+21,3367471.84958,3.41796875e-09,125240.3578728007,4118197752260578.5
4.685944243981833,5.779753701969731e+20,-4.095428191426894e+21,3879967.11027,3.41796875e-09,140321.69192340152,4118931023953709.0
5.154539477470926,6.476334170075696e+20,-4.0928518269400053e+21,4470200.42817,3.41796875e-09,157207.88765787415,4119598746959763.0
5.669994234308928,7.256259728096526e+20,-4.0902357159806485e+21,5149923.52573,3.41796875e-09,176113.9498151967,4120207249744160.0
6.236994466830731,8.12945708939611e+20,-4.08757916311728e+21,5932660.58647,3.41796875e-09,197280.42483792143,4120762156749704.0
6.8606947226047135,9.107031853662281e+20,-4.0848814722677195e+21,6833975.0295,3.41796875e-09,220976.42766659832,4121268476383671.0
7.546765003956095,1.0201408162726322e+21,-4.0821419456329957e+21,7871776.24501,3.41796875e-09,247503.02604783952,4121730681690536.5
8.301442313442614,1.1426484863184985e+21,-4.079359882627668e+21,9066672.27256,3.41796875e-09,277197.0246952729,4122152781310081.0
9.131587353877785,1.2797810126218975e+21,-4.076534578936067e+21,10442375.3068,3.41796875e-09,310435.19664170645,4122538379882795.0
10.044746898356474,1.4332776704221784e+21,-4.0736653257649753e+21,12026167.9493,3.41796875e-09,347639.0146842421,4122890728257338.5
11.049222397283032,1.6050840259774172e+21,-4.070751409320583e+21,13849439.3091,3.41796875e-09,389279.94203325704,4123212764556699.0
12.154145446102245,1.797376348845179e+21,-4.0677921105171595e+21,15949404.718,3.2958984375e-09,435885.34822070703,4123507147423298.5
13.369560799803379,2.0125889076499802e+21,-4.0647867049231065e+21,18366874.2565,3.2958984375e-09,488045.1240938311,4123776282750120.5
14.706517688874627,2.2534444891351094e+21,-4.061734462954285e+21,21149717.4928,3.2958984375e-09,546419.0784042486,4124022345112882.5
16.177170266853,2.522988520132913e+21,-4.058634650320361e+21,24353015.3598,3.2958984375e-09,611745.2081818401,4124247295097666.0
